1304		1304 1141 2045 688 144 1586 1905
59	1304 1141 2045 688 144 1586 1905	59 1019 70 371 459 184 535
25 14	1304 1141 2045 688 144 1586 1905 59 1019 70 371 459 184 535	151 246 25 14 282 2365 1397
882	1304 1141 2045 688 144 1586 1905 59 1019 70 371 459 184 535 151 246 25 14 282 2365 1397	882 243 56 89 1780 226 11
347		347 497 1100 1215 68 288 1947
1701	347 497 1100 1215 68 288 1947	1701 194 5 594 23 16 174
216	347 497 1100 1215 68 288 1947 1701 194 5 594 23 16 174	216 1672 465 74 138 18 1289
339	347 497 1100 1215 68 288 1947 1701 194 5 594 23 16 174 216 1672 465 74 138 18 1289	339 673 1100 248 5 985 6
1280		1280 296 1167 352 69 49 260
584	1280 296 1167 352 69 49 260	584 1454 372 284 73 174 169
114	1280 296 1167 352 69 49 260 584 1454 372 284 73 174 169	114 1860 568 620 373 10 51
6 30	1280 296 1167 352 69 49 260 584 1454 372 284 73 174 169 114 1860 568 620 373 10 51	136 74 6 30 7 137 17
650		650 1106 56 11 1780 226 86
8 354	650 1106 56 11 1780 226 86	1720 52 8 354 191 883 248
17	650 1106 56 11 1780 226 86 1720 52 8 354 191 883 248	17 103 1122 559 1403 273 771
2710	650 1106 56 11 1780 226 86 1720 52 8 354 191 883 248 17 103 1122 559 1403 273 771	2710 1441 310 2761 284 2198 238
95 403		26 294 95 403 1315 474 154
47	26 294 95 403 1315 474 154	47 642 20 51 88 2605 19
308	26 294 95 403 1315 474 154 47 642 20 51 88 2605 19	308 1403 2340 916 66 512 1387
343	26 294 95 403 1315 474 154 47 642 20 51 88 2605 19 308 1403 2340 916 66 512 1387	343 277 340 6 1711 189 328
3811		3811 30 57 180 181 200 592
26	3811 30 57 180 181 200 592	26 294 798 112 107 239 2211
5	3811 30 57 180 181 200 592 26 294 798 112 107 239 2211	5 316 154 36 463 174 2183
1394 3123 2212	3811 30 57 180 181 200 592 26 294 798 112 107 239 2211 5 316 154 36 463 174 2183	779 729 208 185 1394 3123 2212
189		189 448 413 22 772 1780 143
530	189 448 413 22 772 1780 143	530 64 136 73 559 64 592
55 195	189 448 413 22 772 1780 143 530 64 136 73 559 64 592	55 195 214 166 41 81 51
8 131	189 448 413 22 772 1780 143 530 64 136 73 559 64 592 55 195 214 166 41 81 51	219 94 8 131 68 27 78
70		70 371 59 1019 5 759 633
205 24	70 371 59 1019 5 759 633	253 48 205 24 107 32 95
222 23	70 371 59 1019 5 759 633 253 48 205 24 107 32 95	143 933 349 130 222 23 441
362	70 371 59 1019 5 759 633 253 48 205 24 107 32 95 143 933 349 130 222 23 441	362 34 189 185 69 248 1060
3066		3066 1721 1053 1054 1260 189 1168
3278	3066 1721 1053 1054 1260 189 1168	3278 97 3603 144 1374 3067 1403
1126 22	3066 1721 1053 1054 1260 189 1168 3278 97 3603 144 1374 3067 1403	442 1062 1126 22 1999 512 771
949 265	3066 1721 1053 1054 1260 189 1168 3278 97 3603 144 1374 3067 1403 442 1062 1126 22 1999 512 771	243 238 949 265 3279 1420 541
2509		2509 2509 325 554 594 1066 1404
2000	2509 2509 325 554 594 1066 1404	2000 2000 4316 464 76 2226 923
3380	2509 2509 325 554 594 1066 1404 2000 2000 4316 464 76 2226 923	3380 1412 233 1268 1740 609 706
3067 1107	2509 2509 325 554 594 1066 1404 2000 2000 4316 464 76 2226 923 3380 1412 233 1268 1740 609 706	3426 1374 3067 1107 760 722 2776
804		804 1261 3147 4216 132 57 856
993	804 1261 3147 4216 132 57 856	993 189 1033 3 481 59 205
1549	804 1261 3147 4216 132 57 856 993 189 1033 3 481 59 205	1549 1258 798 1297 269 480 2123
136	804 1261 3147 4216 132 57 856 993 189 1033 3 481 59 205 1549 1258 798 1297 269 480 2123	136 1747 314 2711 702 1248 884
949		949 22 3653 1277 233 1387 353
2250	949 22 3653 1277 233 1387 353	2250 22 1030 1277 2429 125 1067
1301	949 22 3653 1277 233 1387 353 2250 22 1030 1277 2429 125 1067	1301 1388 1001 1277 346 464 4639
2317	949 22 3653 1277 233 1387 353 2250 22 1030 1277 2429 125 1067 1301 1388 1001 1277 346 464 4639	2317 308 4534 1277 509 263 708
48		48 523 100 192 196 391 391
3381	48 523 100 192 196 391 391	3381 3382 1088 325 37 347 44
11 55	48 523 100 192 196 391 391 3381 3382 1088 325 37 347 44	5 326 630 11 55 61 493
2098 386	48 523 100 192 196 391 391 3381 3382 1088 325 37 347 44 5 326 630 11 55 61 493	76 2801 2098 386 144 1581 1452
57		57 934 1913 28 464 178 19
489 8	57 934 1913 28 464 178 19	59 532 489 8 107 2366 432
452 48	57 934 1913 28 464 178 19 59 532 489 8 107 2366 432	452 48 1576 1930 178 37 179
117	57 934 1913 28 464 178 19 59 532 489 8 107 2366 432 452 48 1576 1930 178 37 179	117 4765 216 676 66 69 328
1009		1009 805 2382 1836 531 83 117
798	1009 805 2382 1836 531 83 117	798 537 2250 5073 2406 464 11
1421	1009 805 2382 1836 531 83 117 798 537 2250 5073 2406 464 11	1421 1421 1890 9 22 182 1752
1216	1009 805 2382 1836 531 83 117 798 537 2250 5073 2406 464 11 1421 1421 1890 9 22 182 1752	1216 1216 594 1132 15 133 76
212		212 1282 443 2712 3208 28 1036
97	212 1282 443 2712 3208 28 1036	97 2737 66 4046 1006 609 541
221	212 1282 443 2712 3208 28 1036 97 2737 66 4046 1006 609 541	221 221 19 19 341 3559 2692
55	212 1282 443 2712 3208 28 1036 97 2737 66 4046 1006 609 541 221 221 19 19 341 3559 2692	55 55 430 430 330 1067 123
3604		3604 27 328 283 197 25 86
592	3604 27 328 283 197 25 86	592 147 165 489 46 10 116
1636	3604 27 328 283 197 25 86 592 147 165 489 46 10 116	1636 242 818 4906 106 1111 333
6	3604 27 328 283 197 25 86 592 147 165 489 46 10 116 1636 242 818 4906 106 1111 333	6 33 120 43 249 16 364
601 12		560 822 192 1977 1752 601 12
1274	560 822 192 1977 1752 601 12	1274 2331 184 27 2626 97 319
253 816	560 822 192 1977 1752 601 12 1274 2331 184 27 2626 97 319	20 114 253 816 57 9 150
6	560 822 192 1977 1752 601 12 1274 2331 184 27 2626 97 319 20 114 253 816 57 9 150	6 33 84 71 254 154 36
575		575 95 2713 1205 417 2606 47
3706 525	575 95 2713 1205 417 2606 47	3706 525 239 778 5 1677 227
228	575 95 2713 1205 417 2606 47 3706 525 239 778 5 1677 227	228 96 305 151 100 66 162
247	575 95 2713 1205 417 2606 47 3706 525 239 778 5 1677 227 228 96 305 151 100 66 162	247 3812 275 1977 547 790 1853
499		499 723 354 75 75 5 84
87	499 723 354 75 75 5 84	87 2165 2521 2521 56 111 50
224	499 723 354 75 75 5 84 87 2165 2521 2521 56 111 50	224 22 640 26 1465 667 8
1344	499 723 354 75 75 5 84 87 2165 2521 2521 56 111 50 224 22 640 26 1465 667 8	1344 177 266 133 200 531 27
93		93 231 830 165 304 212 83
488	93 231 830 165 304 212 83	488 1009 38 252 337 1156 839
85 2054	93 231 830 165 304 212 83 488 1009 38 252 337 1156 839	276 100 663 494 2199 85 2054
106	93 231 830 165 304 212 83 488 1009 38 252 337 1156 839 276 100 663 494 2199 85 2054	106 317 490 5277 108 356 202
132 52		7 275 132 52 1799 59 97
76 18	7 275 132 52 1799 59 97	76 18 460 755 344 8 925
1816 1337	7 275 132 52 1799 59 97 76 18 460 755 344 8 925	374 6 214 313 783 1816 1337
686	7 275 132 52 1799 59 97 76 18 460 755 344 8 925 374 6 214 313 783 1816 1337	686 115 706 62 5 65 47
839 12		175 42 839 12 284 158 122
111 35	175 42 839 12 284 158 122	7 165 111 35 342 881 881
575	175 42 839 12 284 158 122 7 165 111 35 342 881 881	575 600 1002 787 6 79 403
5	175 42 839 12 284 158 122 7 165 111 35 342 881 881 575 600 1002 787 6 79 403	5 278 3 152 493 157 544
830		830 147 10 243 42 1100 1338
25 678	830 147 10 243 42 1100 1338	461 416 1969 1206 5 25 678
83	830 147 10 243 42 1100 1338 461 416 1969 1206 5 25 678	83 14 138 19 158 111 28
1605 539	830 147 10 243 42 1100 1338 461 416 1969 1206 5 25 678 83 14 138 19 158 111 28	1090 1230 147 26 1423 1605 539
1040		1040 3093 59 2155 1521 87 1672
370 951	1040 3093 59 2155 1521 87 1672	209 2017 127 169 742 370 951
5	1040 3093 59 2155 1521 87 1672 209 2017 127 169 742 370 951	5 385 891 178 222 250 557
496 963	1040 3093 59 2155 1521 87 1672 209 2017 127 169 742 370 951 5 385 891 178 222 250 557	496 963 427 23 71 33 146
1352		1352 1352 2509 2509 323 66 22
1069	1352 1352 2509 2509 323 66 22	1069 194 266 26 28 194 82
28	1352 1352 2509 2509 323 66 22 1069 194 266 26 28 194 82	28 194 29 27 1275 202 448
14	1352 1352 2509 2509 323 66 22 1069 194 266 26 28 194 82 28 194 29 27 1275 202 448	14 110 5 171 174 914 6
1133 39		13 149 156 48 288 1133 39
404	13 149 156 48 288 1133 39	404 87 92 65 5 650 160
25 871	13 149 156 48 288 1133 39 404 87 92 65 5 650 160	6 176 25 871 291 194 1353
223 8	13 149 156 48 288 1133 39 404 87 92 65 5 650 160 6 176 25 871 291 194 1353	7 181 223 8 91 594 1379
2738		2738 1512 212 1564 331 973 341
169 1704	2738 1512 212 1564 331 973 341	169 1704 154 1054 349 871 55
111 876	2738 1512 212 1564 331 973 341 169 1704 154 1054 349 871 55	5 960 532 1009 108 111 876
198 21	2738 1512 212 1564 331 973 341 169 1704 154 1054 349 871 55 5 960 532 1009 108 111 876	43 17 198 21 180 22 367
463		463 227 308 1019 71 689 318
772	463 227 308 1019 71 689 318	772 15 87 514 261 1387 2055
547	463 227 308 1019 71 689 318 772 15 87 514 261 1387 2055	547 115 715 117 371 61 48
74	463 227 308 1019 71 689 318 772 15 87 514 261 1387 2055 547 115 715 117 371 61 48	74 48 156 1116 236 467 10
212 1201		212 1201 87 246 321 66 811
63 147	212 1201 87 246 321 66 811	137 552 119 21 68 63 147
41 9	212 1201 87 246 321 66 811 137 552 119 21 68 63 147	630 11 107 48 41 9 464
48 107	212 1201 87 246 321 66 811 137 552 119 21 68 63 147 630 11 107 48 41 9 464	99 551 41 9 48 107 53
26		26 350 4907 880 3148 403 1269
1128	26 350 4907 880 3148 403 1269	1128 692 1150 1258 181 1375 969
464	26 350 4907 880 3148 403 1269 1128 692 1150 1258 181 1375 969	464 1394 1241 1277 507 692 253
689	26 350 4907 880 3148 403 1269 1128 692 1150 1258 181 1375 969 464 1394 1241 1277 507 692 253	689 480 2824 1277 16 919 55
473 1054		885 1721 1033 271 473 1054 150
1157 443 103	885 1721 1033 271 473 1054 150	1157 443 103 756 512 1053 62
84	885 1721 1033 271 473 1054 150 1157 443 103 756 512 1053 62	84 1062 101 530 238 189 2166
136	885 1721 1033 271 473 1054 150 1157 443 103 756 512 1053 62 84 1062 101 530 238 189 2166	136 1370 624 919 3516 1269 19
1168 1171		238 1062 1645 1277 1168 1171 362
311	238 1062 1645 1277 1168 1171 362	311 178 2301 1277 233 125 1067
52	238 1062 1645 1277 1168 1171 362 311 178 2301 1277 233 125 1067	52 692 978 1277 220 1956 2825
1241 1394	238 1062 1645 1277 1168 1171 362 311 178 2301 1277 233 125 1067 52 692 978 1277 220 1956 2825	1241 1394 1598 1277 3516 263 708
3066		3066 1721 1053 1054 1260 189 1168
3278	3066 1721 1053 1054 1260 189 1168	3278 97 3603 144 1374 3067 1403
1126 22	3066 1721 1053 1054 1260 189 1168 3278 97 3603 144 1374 3067 1403	442 1062 1126 22 1999 512 771
949 265	3066 1721 1053 1054 1260 189 1168 3278 97 3603 144 1374 3067 1403 442 1062 1126 22 1999 512 771	243 238 949 265 3279 1420 541
16		16 438 919 199 34 3707 902
985	16 438 919 199 34 3707 902	985 460 1712 692 3517 4536 307
3560	16 438 919 199 34 3707 902 985 460 1712 692 3517 4536 307	3560 2332 15 1277 1374 1150 1258
3380	16 438 919 199 34 3707 902 985 460 1712 692 3517 4536 307 3560 2332 15 1277 1374 1150 1258	3380 233 1268 1277 1241 5846 140
84		84 760 3 1128 2167 957 2522
46	84 760 3 1128 2167 957 2522	46 1062 1070 4908 3755 1455 64
3654	84 760 3 1128 2167 957 2522 46 1062 1070 4908 3755 1455 64	3654 467 624 919 1354 671 5540
8 330	84 760 3 1128 2167 957 2522 46 1062 1070 4908 3755 1455 64 3654 467 624 919 1354 671 5540	2277 611 2430 8 330 268 123
4047 3755		311 530 4047 3755 311 802 100
440 8	311 530 4047 3755 311 802 100	440 4640 2895 3462 440 8 30
330	311 530 4047 3755 311 802 100 440 4640 2895 3462 440 8 30	330 254 1420 1277 6 233 978
860	311 530 4047 3755 311 802 100 440 4640 2895 3462 440 8 30 330 254 1420 1277 6 233 978	860 563 692 1277 16 124 40
2509		2509 2509 325 554 594 1066 1404
2000	2509 2509 325 554 594 1066 1404	2000 2000 4316 464 76 2226 923
3380	2509 2509 325 554 594 1066 1404 2000 2000 4316 464 76 2226 923	3380 1412 233 1268 1740 609 3068
3067 1107	2509 2509 325 554 594 1066 1404 2000 2000 4316 464 76 2226 923 3380 1412 233 1268 1740 609 3068	3426 1374 3067 1107 760 722 2776
949 444		488 289 463 238 949 444 2607
178 2973	488 289 463 238 949 444 2607	178 2973 1315 429 1006 1503 8
756	488 289 463 238 949 444 2607 178 2973 1315 429 1006 1503 8	756 5847 22 117 1260 3707 692
523	488 289 463 238 949 444 2607 178 2973 1315 429 1006 1503 8 756 5847 22 117 1260 3707 692	523 314 1576 284 1374 233 360
1053 4049		594 708 532 202 107 1053 4049
195	594 708 532 202 107 1053 4049	195 238 2251 429 2318 125 629
25 14	594 708 532 202 107 1053 4049 195 238 2251 429 2318 125 629	25 14 22 85 1370 512 771
559 1914	594 708 532 202 107 1053 4049 195 238 2251 429 2318 125 629 25 14 22 85 1370 512 771	119 678 681 559 1914 16 100
1070		1070 238 3518 429 743 19 1420
977 559	1070 238 3518 429 743 19 1420	977 559 1880 530 1158 18 2572
949	1070 238 3518 429 743 19 1420 977 559 1880 530 1158 18 2572	949 265 200 629 1243 13 416
1126	1070 238 3518 429 743 19 1420 977 559 1880 530 1158 18 2572 949 265 200 629 1243 13 416	1126 22 2456 3045 307 1001 2301
3654		3654 1519 226 1780 297 4537 3518
66	3654 1519 226 1780 297 4537 3518	66 2166 1089 92 817 812 926
426	3654 1519 226 1780 297 4537 3518 66 2166 1089 92 817 812 926	426 4641 1062 516 291 792 1258
403	3654 1519 226 1780 297 4537 3518 66 2166 1089 92 817 812 926 426 4641 1062 516 291 792 1258	403 429 195 238 3921 4766 884
949 265		1854 1040 162 798 1412 949 265
862 202	1854 1040 162 798 1412 949 265	862 202 2029 1817 757 1126 22
2844 2167	1854 1040 162 798 1412 949 265 862 202 2029 1817 757 1126 22	2844 2167 4317 692 1260 233 702
485	1854 1040 162 798 1412 949 265 862 202 2029 1817 757 1126 22 2844 2167 4317 692 1260 233 702	485 1315 863 360 1374 3707 269
97 1062 354		365 186 440 8 97 1062 354
66 4050	365 186 440 8 97 1062 354	132 357 59 429 66 4050 297
62 1283	365 186 440 8 97 1062 354 132 357 59 429 66 4050 297	1063 1260 1891 1818 131 62 1283
471	365 186 440 8 97 1062 354 132 357 59 429 66 4050 297 1063 1260 1891 1818 131 62 1283	471 3813 532 360 1374 1128 52
949		949 22 3653 1277 233 1387 353
2250	949 22 3653 1277 233 1387 353	2250 22 1030 1277 2429 125 1067
1301	949 22 3653 1277 233 1387 353 2250 22 1030 1277 2429 125 1067	1301 1388 1001 1277 346 464 2762
2317	949 22 3653 1277 233 1387 353 2250 22 1030 1277 2429 125 1067 1301 1388 1001 1277 346 464 2762	2317 308 4534 1277 509 263 708
2777 1284		1022 94 1241 1503 295 2777 1284
350	1022 94 1241 1503 295 2777 1284	350 47 485 692 1678 474 30
27 637	1022 94 1241 1503 295 2777 1284 350 47 485 692 1678 474 30	27 637 1549 949 57 856 2200
1645 2419	1022 94 1241 1503 295 2777 1284 350 47 485 692 1678 474 30 27 637 1549 949 57 856 2200	269 702 1645 2419 254 826 123
233 94		233 94 284 30 2167 254 2473
183	233 94 284 30 2167 254 2473	183 856 532 1093 3279 440 5541
3149	233 94 284 30 2167 254 2473 183 856 532 1093 3279 440 5541	3149 702 302 269 2226 464 480
463	233 94 284 30 2167 254 2473 183 856 532 1093 3279 440 5541 3149 702 302 269 2226 464 480	463 1503 1258 5848 2123 863 19
798		798 3518 544 2474 269 1541 84
314	798 3518 544 2474 269 1541 84	314 2711 3028 3655 702 53 200
213	798 3518 544 2474 269 1541 84 314 2711 3028 3655 702 53 200	213 221 2605 994 233 578 230
1412	798 3518 544 2474 269 1541 84 314 2711 3028 3655 702 53 200 213 221 2605 994 233 578 230	1412 1503 2637 1394 349 22 338
59		59 329 857 2365 131 26 2778
57	59 329 857 2365 131 26 2778	57 1254 1891 692 1374 126 751
1842	59 329 857 2365 131 26 2778 57 1254 1891 692 1374 126 751	1842 3656 1970 85 706 259 94
95	59 329 857 2365 131 26 2778 57 1254 1891 692 1374 126 751 1842 3656 1970 85 706 259 94	95 1522 1854 504 721 211 6
3605		3605 1315 1209 76 1260 507 2259
178	3605 1315 1209 76 1260 507 2259	178 3150 488 3 2367 233 1519
2070 773	3605 1315 1209 76 1260 507 2259 178 3150 488 3 2367 233 1519	706 870 2070 773 3708 467 4141
3149	3605 1315 1209 76 1260 507 2259 178 3150 488 3 2367 233 1519 706 870 2070 773 3708 467 4141	3149 702 302 269 1128 692 1147
233 131		507 2070 359 233 131 563 1159
350	507 2070 359 233 131 563 1159	350 47 1258 3516 295 59 205
957	507 2070 359 233 131 563 1159 350 47 1258 3516 295 59 205	957 4318 3046 2659 878 1725 253
52	507 2070 359 233 131 563 1159 350 47 1258 3516 295 59 205 957 4318 3046 2659 878 1725 253	52 692 460 2124 488 919 1269
2509		2509 2509 689 360 551 2589 2542
473 473	2509 2509 689 360 551 2589 2542	473 473 415 692 4142 30 350
1337 404	2509 2509 689 360 551 2589 2542 473 473 415 692 4142 30 350	76 1725 1337 404 1637 2353 2763
2223	2509 2509 689 360 551 2589 2542 473 473 415 692 4142 30 350 76 1725 1337 404 1637 2353 2763	2223 880 1069 1248 185 840 40
460		460 507 2659 16 2167 1128 1168
460	460 507 2659 16 2167 1128 1168	460 16 37 189 4141 1646 163
2638	460 507 2659 16 2167 1128 1168 460 16 37 189 4141 1646 163	2638 4318 1158 2070 131 197 692
3067 1374 1139	460 507 2659 16 2167 1128 1168 460 16 37 189 4141 1646 163 2638 4318 1158 2070 131 197 692	1523 2475 2523 3067 1374 1139 1403
4047 3755		311 530 4047 3755 311 802 100
3427 3304	311 530 4047 3755 311 802 100	440 4640 3427 3304 440 8 30
330	311 530 4047 3755 311 802 100 440 4640 3427 3304 440 8 30	330 254 1420 1277 6 233 978
860	311 530 4047 3755 311 802 100 440 4640 3427 3304 440 8 30 330 254 1420 1277 6 233 978	860 563 692 1277 16 124 40
285		285 269 629 702 2318 560 822
7	285 269 629 702 2318 560 822	7 442 7 362 131 507 1519
30 6	285 269 629 702 2318 560 822 7 442 7 362 131 507 1519	208 185 30 6 238 14 1711
70	285 269 629 702 2318 560 822 7 442 7 362 131 507 1519 208 185 30 6 238 14 1711	70 2476 1705 2715 2367 10 2420
97 122		97 122 798 1748 916 40 238
790	97 122 798 1748 916 40 238	790 215 2367 2824 1070 2080 499
801 982	97 122 798 1748 916 40 238 790 215 2367 2824 1070 2080 499	3047 583 801 982 365 52 134
59	97 122 798 1748 916 40 238 790 215 2367 2824 1070 2080 499 3047 583 801 982 365 52 134	59 1741 1260 1187 350 121 86
3755 1062		440 583 3755 1062 760 97 144
1665 1168	440 583 3755 1062 760 97 144	311 4640 132 53 1665 1168 357
883	440 583 3755 1062 760 97 144 311 4640 132 53 1665 1168 357	883 1843 2046 185 136 843 188
812	440 583 3755 1062 760 97 144 311 4640 132 53 1665 1168 357 883 1843 2046 185 136 843 188	812 28 76 751 547 21 126
314		314 2896 798 3518 38 2420 2018
7	314 2896 798 3518 38 2420 2018	7 1116 7 1045 973 53 1541
497	314 2896 798 3518 38 2420 2018 7 1116 7 1045 973 53 1541	497 1171 57 2716 1128 1168 357
33	314 2896 798 3518 38 2420 2018 7 1116 7 1045 973 53 1541 497 1171 57 2716 1128 1168 357	33 760 311 4640 1854 1519 1621
1148		1148 1148 97 144 357 1549 2071
2367	1148 1148 97 144 357 1549 2071	2367 2367 798 1030 753 53 1283
3980	1148 1148 97 144 357 1549 2071 2367 2367 798 1030 753 53 1283	3980 9 496 982 497 578 187
4413 2184	1148 1148 97 144 357 1549 2071 2367 2367 798 1030 753 53 1283 3980 9 496 982 497 578 187	1159 298 1116 1550 33 4413 2184
94		94 295 226 1277 2524 3519 3094
1069	94 295 226 1277 2524 3519 3094	1069 473 1292 1277 3561 507 233
2639 3606	94 295 226 1277 2524 3519 3094 1069 473 1292 1277 3561 507 233	1424 2639 3606 1277 2167 1865 269
1742	94 295 226 1277 2524 3519 3094 1069 473 1292 1277 3561 507 233 1424 2639 3606 1277 2167 1865 269	1742 1435 3559 1277 580 111 129
843		843 269 1549 1374 1244 1339 692
2056 702 114	843 269 1549 1374 1244 1339 692	2056 702 114 100 3028 3655 357
1541	843 269 1549 1374 1244 1339 692 2056 702 114 100 3028 3655 357	1541 2444 1496 1371 588 121 416
52	843 269 1549 1374 1244 1339 692 2056 702 114 100 3028 3655 357 1541 2444 1496 1371 588 121 416	52 52 90 891 330 10 396
356		356 125 1126 558 78 306 1361
31 1934 202	356 125 1126 558 78 306 1361	2302 127 197 1062 31 1934 202
2137 76	356 125 1126 558 78 306 1361 2302 127 197 1062 31 1934 202	16 67 2137 76 1542 525 358
1466	356 125 1126 558 78 306 1361 2302 127 197 1062 31 1934 202 16 67 2137 76 1542 525 358	1466 33 79 199 3756 425 360
165 609		286 610 78 107 116 165 609
1036	286 610 78 107 116 165 609	1036 1282 469 379 28 2030 54
855	286 610 78 107 116 165 609 1036 1282 469 379 28 2030 54	855 185 244 216 1033 2168 1162
1297 841	286 610 78 107 116 165 609 1036 1282 469 379 28 2030 54 855 185 244 216 1033 2168 1162	1762 9 58 96 1472 1297 841
5075 559		426 2457 5075 559 833 117 610
306 329	426 2457 5075 559 833 117 610	306 329 123 2333 497 31 187
189	426 2457 5075 559 833 117 610 306 329 123 2333 497 31 187	189 345 1356 1127 667 133 28
185 22	426 2457 5075 559 833 117 610 306 329 123 2333 497 31 187 189 345 1356 1127 667 133 28	16 125 178 805 2382 185 22
559 615		28 91 2489 85 559 615 426
250 2213	28 91 2489 85 559 615 426	70 474 250 2213 107 2333 147
629 1213	28 91 2489 85 559 615 426 70 474 250 2213 107 2333 147	574 718 312 185 22 629 1213
178 886	28 91 2489 85 559 615 426 70 474 250 2213 107 2333 147 574 718 312 185 22 629 1213	3428 179 178 886 28 261 1036
342		342 35 1297 805 719 31 314
60 141	342 35 1297 805 719 31 314	641 129 60 141 15 131 54
666	342 35 1297 805 719 31 314 641 129 60 141 15 131 54	666 15 125 610 413 244 823
2333 610	342 35 1297 805 719 31 314 641 129 60 141 15 131 54 666 15 125 610 413 244 823	2333 610 98 42 179 83 1327
550		550 18 52 28 356 18 262
59	550 18 52 28 356 18 262	59 50 55 708 6 31 136
435	550 18 52 28 356 18 262 59 50 55 708 6 31 136	435 317 178 147 92 125 68
5	550 18 52 28 356 18 262 59 50 55 708 6 31 136 435 317 178 147 92 125 68	5 272 641 179 376 183 9
811 425		60 12 1781 26 213 811 425
101 364	60 12 1781 26 213 811 425	101 364 27 103 10 65 18
53 6	60 12 1781 26 213 811 425 101 364 27 103 10 65 18	396 56 2278 251 53 6 327
179	60 12 1781 26 213 811 425 101 364 27 103 10 65 18 396 56 2278 251 53 6 327	179 410 77 11 24 21 79
97 369		97 369 413 983 1389 823 1436
179 39	97 369 413 983 1389 823 1436	179 39 1142 96 376 379 3607
399	97 369 413 983 1389 823 1436 179 39 1142 96 376 379 3607	399 805 58 1456 1313 385 1132
404	97 369 413 983 1389 823 1436 179 39 1142 96 376 379 3607 399 805 58 1456 1313 385 1132	404 2227 641 718 2071 624 1101
101		101 1819 309 26 60 22 80
7	101 1819 309 26 60 22 80	7 401 256 147 59 1922 9
2175	101 1819 309 26 60 22 80 7 401 256 147 59 1922 9	2175 842 20 114 828 366 177
66 85 262	101 1819 309 26 60 22 80 7 401 256 147 59 1922 9 2175 842 20 114 828 366 177	13 8 5 376 66 85 262
1513 1513		105 292 1513 1513 13 366 177
946 240	105 292 1513 1513 13 366 177	930 458 125 11 753 946 240
1660	105 292 1513 1513 13 366 177 930 458 125 11 753 946 240	1660 357 73 43 169 1128 695
20	105 292 1513 1513 13 366 177 930 458 125 11 753 946 240 1660 357 73 43 169 1128 695	20 549 44 558 161 130 430
682		682 115 41 133 728 60 1523
136	682 115 41 133 728 60 1523	136 223 380 445 2640 41 233
887	682 115 41 133 728 60 1523 136 223 380 445 2640 41 233	887 17 5 686 132 52 242
97 472	682 115 41 133 728 60 1523 136 223 380 445 2640 41 233 887 17 5 686 132 52 242	459 1638 97 472 1362 253 6
35 275		55 330 12 122 35 275 406
38 1782	55 330 12 122 35 275 406	41 147 15 342 148 38 1782
13 165	55 330 12 122 35 275 406 41 147 15 342 148 38 1782	13 165 5 765 4217 3048 713
184 27	55 330 12 122 35 275 406 41 147 15 342 148 38 1782 13 165 5 765 4217 3048 713	184 27 117 359 1820 334 336
2407		2407 1307 136 29 2845 149 817
55 539	2407 1307 136 29 2845 149 817	55 539 164 74 111 194 2354
780 2368	2407 1307 136 29 2845 149 817 55 539 164 74 111 194 2354	780 2368 65 201 834 5279 2590
161	2407 1307 136 29 2845 149 817 55 539 164 74 111 194 2354 780 2368 65 201 834 5279 2590	161 25 1037 3757 728 1483 181
7		7 117 213 28 7 117 602
431 6	7 117 213 28 7 117 602	213 28 28 431 6 5 431
20	7 117 213 28 7 117 602 213 28 28 431 6 5 431	20 18 23 42 356 146 317
236 425	7 117 213 28 7 117 602 213 28 28 431 6 5 431 20 18 23 42 356 146 317	37 1660 245 127 1935 236 425
15		15 342 297 319 404 96 92
469	15 342 297 319 404 96 92	469 6 38 953 510 499 168
238 429	15 342 297 319 404 96 92 469 6 38 953 510 499 168	619 11 62 1132 48 238 429
277	15 342 297 319 404 96 92 469 6 38 953 510 499 168 619 11 62 1132 48 238 429	277 358 1313 385 58 1494 34
25		25 304 2228 1415 213 374 558
79	25 304 2228 1415 213 374 558	79 24 860 955 315 38 4051
101	25 304 2228 1415 213 374 558 79 24 860 955 315 38 4051	101 97 5 660 356 202 1516
63 1826	25 304 2228 1415 213 374 558 79 24 860 955 315 38 4051 101 97 5 660 356 202 1516	63 1826 83 1252 641 124 552
104		104 250 641 319 104 556 8
909 87	104 250 641 319 104 556 8	539 909 247 1881 2057 909 87
160	104 250 641 319 104 556 8 539 909 247 1881 2057 909 87	160 333 1111 783 3381 3382 65
29	104 250 641 319 104 556 8 539 909 247 1881 2057 909 87 160 333 1111 783 3381 3382 65	29 33 99 74 236 467 17
359 233		714 1412 835 236 88 359 233
101 97	714 1412 835 236 88 359 233	770 37 101 97 5 37 6
179	714 1412 835 236 88 359 233 770 37 101 97 5 37 6	179 26 1831 1827 53 59 50
356	714 1412 835 236 88 359 233 770 37 101 97 5 37 6 179 26 1831 1827 53 59 50	356 202 55 14 390 30 13
210		210 213 1313 385 15 142 267
52	210 213 1313 385 15 142 267	52 44 179 26 1461 641 319
101 364 27	210 213 1313 385 15 142 267 52 44 179 26 1461 641 319	7 276 493 806 101 364 27
103 108	210 213 1313 385 15 142 267 52 44 179 26 1461 641 319 7 276 493 806 101 364 27	121 23 77 103 108 356 36
484		484 393 200 285 67 1245 117
356	484 393 200 285 67 1245 117	356 28 52 52 261 1132 11
55 195	484 393 200 285 67 1245 117 356 28 52 52 261 1132 11	347 201 55 195 158 173 32
70	484 393 200 285 67 1245 117 356 28 52 52 261 1132 11 347 201 55 195 158 173 32	70 85 59 657 66 165 215
101 97		1156 839 181 61 101 97 861
2608 2779	1156 839 181 61 101 97 861	310 1563 2608 2779 1167 812 3758
860	1156 839 181 61 101 97 861 310 1563 2608 2779 1167 812 3758	860 6 200 191 16 31 52
240	1156 839 181 61 101 97 861 310 1563 2608 2779 1167 812 3758 860 6 200 191 16 31 52	240 531 542 2739 56 27 344
63 352		82 952 63 352 145 475 1771
2608 2779	82 952 63 352 145 475 1771	47 68 44 36 2608 2779 26
90 47	82 952 63 352 145 475 1771 47 68 44 36 2608 2779 26	90 47 2045 1868 44 5 24
2608	82 952 63 352 145 475 1771 47 68 44 36 2608 2779 26 90 47 2045 1868 44 5 24	2608 2779 7 334 7 1002 787
244 1282		20 32 13 8 186 244 1282
184 27	20 32 13 8 186 244 1282	41 81 184 27 359 523 525
860	20 32 13 8 186 244 1282 41 81 184 27 359 523 525	860 6 231 440 250 29 12
12 91	20 32 13 8 186 244 1282 41 81 184 27 359 523 525 860 6 231 440 250 29 12	1461 115 77 8 1398 12 91
619 429		619 238 619 429 852 190 300
12	619 238 619 429 852 190 300	12 91 12 76 493 104 3520
1466	619 238 619 429 852 190 300 12 91 12 76 493 104 3520	1466 365 138 19 445 44 422
1169	619 238 619 429 852 190 300 12 91 12 76 493 104 3520 1466 365 138 19 445 44 422	1169 272 3381 3382 213 78 393
1484		1484 512 138 18 1129 1442 215
101 12	1484 512 138 18 1129 1442 215	101 12 89 626 1800 613 76
117 410	1484 512 138 18 1129 1442 215 101 12 89 626 1800 613 76	6 30 896 670 114 117 410
43	1484 512 138 18 1129 1442 215 101 12 89 626 1800 613 76 6 30 896 670 114 117 410	43 124 349 10 238 429 11
78 393		56 149 78 393 104 184 1517
851	56 149 78 393 104 184 1517	851 731 561 516 2920 744 1999
55	56 149 78 393 104 184 1517 851 731 561 516 2920 744 1999	55 1371 499 723 5 100 429
99	56 149 78 393 104 184 1517 851 731 561 516 2920 744 1999 55 1371 499 723 5 100 429	99 115 8 62 1126 493 443
2920		2920 76 706 110 115 393 48
347	2920 76 706 110 115 393 48	347 23 44 209 158 15 744
5	2920 76 706 110 115 393 48 347 23 44 209 158 15 744	5 278 228 238 602 25 217
220 262	2920 76 706 110 115 393 48 347 23 44 209 158 15 744 5 278 228 238 602 25 217	220 262 940 289 334 64 190
769 168		145 823 319 899 1253 769 168
126 915	145 823 319 899 1253 769 168	147 81 84 365 199 126 915
1763 1036	145 823 319 899 1253 769 168 147 81 84 365 199 126 915	1763 1036 1184 625 581 1412 125
161 1097	145 823 319 899 1253 769 168 147 81 84 365 199 126 915 1763 1036 1184 625 581 1412 125	161 1097 247 718 70 537 34
2558 370		2558 370 147 78 145 475 165
8 56	2558 370 147 78 145 475 165	101 454 161 26 185 8 56
46	2558 370 147 78 145 475 165 101 454 161 26 185 8 56	46 186 310 842 262 9 28
79	2558 370 147 78 145 475 165 101 454 161 26 185 8 56 46 186 310 842 262 9 28	79 270 97 2113 59 50 160
191 429		1831 1827 191 429 996 82 64
204 176	1831 1827 191 429 996 82 64	481 21 262 9 158 204 176
1726	1831 1827 191 429 996 82 64 481 21 262 9 158 204 176	1726 404 133 160 1072 5 65
95	1831 1827 191 429 996 82 64 481 21 262 9 158 204 176 1726 404 133 160 1072 5 65	95 95 56 28 61 55 147
63 185		63 185 55 22 459 96 9
679 85 262	63 185 55 22 459 96 9	256 147 452 213 679 85 262
101 319	63 185 55 22 459 96 9 256 147 452 213 679 85 262	101 319 145 823 720 97 1140
165 609	63 185 55 22 459 96 9 256 147 452 213 679 85 262 101 319 145 823 720 97 1140	5 306 165 609 362 5 136
2896		2896 39 58 91 2302 127 92
97 85	2896 39 58 91 2302 127 92	11 1062 97 85 201 1048 168
732 306	2896 39 58 91 2302 127 92 11 1062 97 85 201 1048 168	60 179 125 610 732 306 1504
101	2896 39 58 91 2302 127 92 11 1062 97 85 201 1048 168 60 179 125 610 732 306 1504	101 178 1936 2072 113 18 34
81		81 1948 1661 659 1832 5 327
268	81 1948 1661 659 1832 5 327	268 139 857 11 10 475 96
55 49	81 1948 1661 659 1832 5 327 268 139 857 11 10 475 96	1340 986 55 49 828 333 54
5849	81 1948 1661 659 1832 5 327 268 139 857 11 10 475 96 1340 986 55 49 828 333 54	5849 5280 16 262 1214 121 458
45		45 19 325 204 679 200 34
1217 2458	45 19 325 204 679 200 34	33 58 1217 2458 2101 84 92
583 326	45 19 325 204 679 200 34 33 58 1217 2458 2101 84 92	708 112 321 11 583 326 217
54 168	45 19 325 204 679 200 34 33 58 1217 2458 2101 84 92 708 112 321 11 583 326 217	5 24 20 32 395 54 168
73		73 44 824 271 132 641 819
66	73 44 824 271 132 641 819	66 500 362 19 252 325 204
463 215	73 44 824 271 132 641 819 66 500 362 19 252 325 204	463 215 210 213 111 35 89
117	73 44 824 271 132 641 819 66 500 362 19 252 325 204 463 215 210 213 111 35 89	117 109 1461 115 813 16 28
55 85		25 765 55 85 302 113 56
499	25 765 55 85 302 113 56	499 168 719 65 493 136 103
7	25 765 55 85 302 113 56 499 168 719 65 493 136 103	7 400 1605 539 52 28 58
238 516	25 765 55 85 302 113 56 499 168 719 65 493 136 103 7 400 1605 539 52 28 58	81 202 238 516 210 202 160
202		202 448 804 804 28 88 132
46 911	202 448 804 804 28 88 132	1260 140 46 911 5 273 187
1783	202 448 804 804 28 88 132 1260 140 46 911 5 273 187	1783 2510 500 26 70 53 493
5	202 448 804 804 28 88 132 1260 140 46 911 5 273 187 1783 2510 500 26 70 53 493	5 21 196 44 21 303 44
565 58		161 218 661 133 565 58 160
868	161 218 661 133 565 58 160	868 18 558 45 164 190 222
240	161 218 661 133 565 58 160 868 18 558 45 164 190 222	240 678 97 3241 346 87 493
404	161 218 661 133 565 58 160 868 18 558 45 164 190 222 240 678 97 3241 346 87 493	404 1337 54 1089 5 710 39
16		16 117 210 683 766 78 165
97 412	16 117 210 683 766 78 165	97 412 10 6 2101 370 103
55 85	16 117 210 683 766 78 165 97 412 10 6 2101 370 103	28 131 88 71 55 85 448
204	16 117 210 683 766 78 165 97 412 10 6 2101 370 103 28 131 88 71 55 85 448	204 69 89 202 7 1262 160
722		722 448 55 160 5 492 13
101 97	722 448 55 160 5 492 13	101 97 208 412 191 56 129
58	722 448 55 160 5 492 13 101 97 208 412 191 56 129	58 1104 52 688 63 16 26
55 85	722 448 55 160 5 492 13 101 97 208 412 191 56 129 58 1104 52 688 63 16 26	161 261 55 85 202 50 6
55 85		13 8 15 15 765 55 85
13 47	13 8 15 15 765 55 85	667 1082 13 47 25 137 552
214	13 8 15 15 765 55 85 667 1082 13 47 25 137 552	214 608 12 76 98 153 1660
5	13 8 15 15 765 55 85 667 1082 13 47 25 137 552 214 608 12 76 98 153 1660	5 29 239 484 211 10 237
16		16 26 488 473 263 395 137
2242 2268	16 26 488 473 263 395 137	6 80 2242 2268 158 273 602
10 6	16 26 488 473 263 395 137 6 80 2242 2268 158 273 602	123 30 47 1727 10 6 249
7	16 26 488 473 263 395 137 6 80 2242 2268 158 273 602 123 30 47 1727 10 6 249	7 98 97 2369 59 707 352
177 149		15 626 202 618 177 149 54
452 521	15 626 202 618 177 149 54	1070 238 452 521 192 22 361
443	15 626 202 618 177 149 54 1070 238 452 521 192 22 361	443 1701 806 65 10 47 242
2920	15 626 202 618 177 149 54 1070 238 452 521 192 22 361 443 1701 806 65 10 47 242	2920 290 12 122 344 153 48
102		102 290 499 168 1461 488 473
197	102 290 499 168 1461 488 473	197 146 156 272 429 1559 1134
12 91	102 290 499 168 1461 488 473 197 146 156 272 429 1559 1134	13 11 99 960 298 12 91
235 8	102 290 499 168 1461 488 473 197 146 156 272 429 1559 1134 13 11 99 960 298 12 91	23 506 235 8 107 650 618
103		103 27 44 558 277 5 117
745 12	103 27 44 558 277 5 117	745 12 339 770 3069 100 886
111 35	103 27 44 558 277 5 117 745 12 339 770 3069 100 886	247 13 31 549 86 111 35
102 869 55	103 27 44 558 277 5 117 745 12 339 770 3069 100 886 247 13 31 549 86 111 35	493 806 102 869 55 184 535
35 806		35 806 1156 839 56 58 55
1260 140	35 806 1156 839 56 58 55	160 47 295 35 71 1260 140
493	35 806 1156 839 56 58 55 160 47 295 35 71 1260 140	493 777 5 332 44 558 217
2477	35 806 1156 839 56 58 55 160 47 295 35 71 1260 140 493 777 5 332 44 558 217	2477 99 70 53 46 59 53
1605 539		332 236 1605 539 161 107 474
1126 558	332 236 1605 539 161 107 474	138 18 6 94 198 1126 558
302	332 236 1605 539 161 107 474 138 18 6 94 198 1126 558	302 19 5 42 44 209 250
12 91	332 236 1605 539 161 107 474 138 18 6 94 198 1126 558 302 19 5 42 44 209 250	12 91 101 454 83 757 85
213		213 42 4217 3048 710 212 194
97 412	213 42 4217 3048 710 212 194	446 76 97 412 3069 298 12
202 380	213 42 4217 3048 710 212 194 446 76 97 412 3069 298 12	114 1860 202 380 245 11 326
22	213 42 4217 3048 710 212 194 446 76 97 412 3069 298 12 114 1860 202 380 245 11 326	22 781 123 140 170 374 36
1117 12		55 326 1117 12 459 88 794
121	55 326 1117 12 459 88 794	121 85 26 3518 141 2102 2102
13	55 326 1117 12 459 88 794 121 85 26 3518 141 2102 2102	13 8 186 12 404 1472 657
1094	55 326 1117 12 459 88 794 121 85 26 3518 141 2102 2102 13 8 186 12 404 1472 657	1094 3 381 64 5 415 428
97 861		97 861 1156 839 56 181 101
443	97 861 1156 839 56 181 101	443 447 5 399 58 11 216
468 149	97 861 1156 839 56 181 101 443 447 5 399 58 11 216	97 661 66 500 10 468 149
911 55	97 861 1156 839 56 181 101 443 447 5 399 58 11 216 97 661 66 500 10 468 149	397 230 81 202 40 911 55
1202		1202 3608 123 52 97 448 76
868	1202 3608 123 52 97 448 76	868 125 665 1231 277 2252 117
66	1202 3608 123 52 97 448 76 868 125 665 1231 277 2252 117	66 468 5 616 54 3609 149
119 369	1202 3608 123 52 97 448 76 868 125 665 1231 277 2252 117 66 468 5 616 54 3609 149	119 369 1260 140 15 271 11
265 719		265 719 235 12 202 448 75
28	265 719 235 12 202 448 75	28 52 238 186 68 1260 140
690 202	265 719 235 12 202 448 75 28 52 238 186 68 1260 140	74 125 185 27 690 202 911
277	265 719 235 12 202 448 75 28 52 238 186 68 1260 140 74 125 185 27 690 202 911	277 806 55 85 7 58 55
129		129 104 97 661 5 1713 75
101	129 104 97 661 5 1713 75	101 454 161 25 337 126 1325
1070	129 104 97 661 5 1713 75 101 454 161 25 337 126 1325	1070 238 20 32 1126 558 1803
223 8	129 104 97 661 5 1713 75 101 454 161 25 337 126 1325 1070 238 20 32 1126 558 1803	7 7 223 8 108 26 140
55		55 85 1239 177 142 287 529
66	55 85 1239 177 142 287 529	66 1564 804 196 303 14 228
87 493	55 85 1239 177 142 287 529 66 1564 804 196 303 14 228	87 493 862 909 730 329 1289
101 97	55 85 1239 177 142 287 529 66 1564 804 196 303 14 228 87 493 862 909 730 329 1289	101 97 79 37 1349 38 29
141 39		5850 141 39 12 4642 181 1452
855 1989	5850 141 39 12 4642 181 1452	855 1989 162 61 429 1340 22
213 41	5850 141 39 12 4642 181 1452 855 1989 162 61 429 1340 22	721 1097 213 41 452 806 110
1523 8	5850 141 39 12 4642 181 1452 855 1989 162 61 429 1340 22 721 1097 213 41 452 806 110	60 1523 8 191 27 30 269
1831 1827		4143 4143 9 982 4538 1831 1827
63 2125	4143 4143 9 982 4538 1831 1827	110 719 63 2125 1318 4218 3609
162	4143 4143 9 982 4538 1831 1827 110 719 63 2125 1318 4218 3609	162 181 10 64 233 45 159
836	4143 4143 9 982 4538 1831 1827 110 719 63 2125 1318 4218 3609 162 181 10 64 233 45 159	836 472 1089 107 296 1290 12
1192		1192 820 215 26 646 794 18
490	1192 820 215 26 646 794 18	490 209 202 50 171 78 1147
490	1192 820 215 26 646 794 18 490 209 202 50 171 78 1147	490 238 562 429 744 31 1645
63 9	1192 820 215 26 646 794 18 490 209 202 50 171 78 1147 490 238 562 429 744 31 1645	63 9 119 1130 142 133 15
194 202		570 194 202 6 58 26 165
44	570 194 202 6 58 26 165	44 209 213 28 78 9 39
58	570 194 202 6 58 26 165 44 209 213 28 78 9 39	58 89 202 448 85 5 713
104 9	570 194 202 6 58 26 165 44 209 213 28 78 9 39 58 89 202 448 85 5 713	60 265 104 9 9 181 947
78 9		78 9 69 202 703 104 266
202	78 9 69 202 703 104 266	202 646 244 426 2974 2764 122
490	78 9 69 202 703 104 266 202 646 244 426 2974 2764 122	490 1923 25 814 728 601 289
44	78 9 69 202 703 104 266 202 646 244 426 2974 2764 122 490 1923 25 814 728 601 289	44 209 666 58 232 17 495
1605 539		1605 539 3049 2057 730 147 329
38 249	1605 539 3049 2057 730 147 329	426 983 354 1308 82 38 249
542	1605 539 3049 2057 730 147 329 426 983 354 1308 82 38 249	542 356 267 379 60 66 258
53 1479	1605 539 3049 2057 730 147 329 426 983 354 1308 82 38 249 542 356 267 379 60 66 258	1090 1230 53 1479 757 348 131
236		236 2383 276 5543 387 37 2846
601 181	236 2383 276 5543 387 37 2846	1090 1230 12 284 601 181 459
310 662	236 2383 276 5543 387 37 2846 1090 1230 12 284 601 181 459	85 62 28 149 626 310 662
978	236 2383 276 5543 387 37 2846 1090 1230 12 284 601 181 459 85 62 28 149 626 310 662	978 382 17 58 696 1124 750
380 225		189 1028 380 225 382 106 227
57	189 1028 380 225 382 106 227	57 57 180 180 565 169 47
40	189 1028 380 225 382 106 227 57 57 180 180 565 169 47	40 1154 252 688 2341 357 149
134	189 1028 380 225 382 106 227 57 57 180 180 565 169 47 40 1154 252 688 2341 357 149	134 88 386 382 70 59 97
490		490 1923 819 940 562 209 1215
601 232	490 1923 819 940 562 209 1215	339 568 601 232 27 719 168
629 108	490 1923 819 940 562 209 1215 339 568 601 232 27 719 168	11 18 1178 483 12 629 108
728 620	490 1923 819 940 562 209 1215 339 568 601 232 27 719 168 11 18 1178 483 12 629 108	728 620 41 39 28 285 34
509 181		509 181 499 1452 7 149 1217
1090	509 181 499 1452 7 149 1217	1090 1230 115 2057 135 133 76
48 5 42	509 181 499 1452 7 149 1217 1090 1230 115 2057 135 133 76	404 108 266 17 48 5 42
187	509 181 499 1452 7 149 1217 1090 1230 115 2057 135 133 76 404 108 266 17 48 5 42	187 238 442 278 14 6 11
104 39		3862 140 380 225 12 104 39
2559	3862 140 380 225 12 104 39	2559 2559 169 1006 296 609 232
13 8	3862 140 380 225 12 104 39 2559 2559 169 1006 296 609 232	13 8 15 342 81 172 50
1764 238	3862 140 380 225 12 104 39 2559 2559 169 1006 296 609 232 13 8 15 342 81 172 50	339 814 1764 238 5 398 263
1764		1764 181 1386 248 509 2943 8
509 12	1764 181 1386 248 509 2943 8	509 12 89 32 118 257 359
264	1764 181 1386 248 509 2943 8 509 12 89 32 118 257 359	264 382 88 242 544 39 153
91 27	1764 181 1386 248 509 2943 8 509 12 89 32 118 257 359 264 382 88 242 544 39 153	192 66 1957 39 91 27 17
91 29		738 140 1117 12 91 29 2975
364	738 140 1117 12 91 29 2975	364 140 239 181 30 243 592
218	738 140 1117 12 91 29 2975 364 140 239 181 30 243 592	218 522 66 165 13 88 65
87	738 140 1117 12 91 29 2975 364 140 239 181 30 243 592 218 522 66 165 13 88 65	87 1290 795 1102 3151 1166 428
2525		2525 504 380 1046 68 2001 8
2526	2525 504 380 1046 68 2001 8	2526 2847 851 194 670 159 202
1721	2525 504 380 1046 68 2001 8 2526 2847 851 194 670 159 202	1721 369 97 4539 588 2355 212
848 91	2525 504 380 1046 68 2001 8 2526 2847 851 194 670 159 202 1721 369 97 4539 588 2355 212	7 146 848 91 802 100 83
212		212 1906 276 399 107 730 147
178	212 1906 276 399 107 730 147	178 2168 306 2478 216 28 52
523	212 1906 276 399 107 730 147 178 2168 306 2478 216 28 52	523 2303 757 3814 2370 10 64
97	212 1906 276 399 107 730 147 178 2168 306 2478 216 28 52 523 2303 757 3814 2370 10 64	97 3002 66 2080 202 17 30
1046 67		1046 67 1748 17 222 7 149
230	1046 67 1748 17 222 7 149	230 8 230 27 69 1559 1134
31 417	1046 67 1748 17 222 7 149 230 8 230 27 69 1559 1134	437 64 31 417 126 11 2081
309	1046 67 1748 17 222 7 149 230 8 230 27 69 1559 1134 437 64 31 417 126 11 2081	309 71 517 62 42 26 473
17		17 516 180 731 200 142 289
452	17 516 180 731 200 142 289	452 272 365 26 390 447 230
7	17 516 180 731 200 142 289 452 272 365 26 390 447 230	7 64 64 115 16 39 91
1924 23	17 516 180 731 200 142 289 452 272 365 26 390 447 230 7 64 64 115 16 39 91	1924 23 154 6 58 814 302
1117 283		25 309 1117 283 23 107 691
46	25 309 1117 283 23 107 691	46 967 26 289 5 272 34
1559 1134	25 309 1117 283 23 107 691 46 967 26 289 5 272 34	7 18 3521 922 1559 1134 916
337	25 309 1117 283 23 107 691 46 967 26 289 5 272 34 7 18 3521 922 1559 1134 916	337 124 869 62 1048 288 168
2511 64		862 476 82 2511 64 200 417
684 99	862 476 82 2511 64 200 417	684 99 1117 283 31 272 6
1069 73	862 476 82 2511 64 200 417 684 99 1117 283 31 272 6	1069 73 127 36 132 240 698
663 179	862 476 82 2511 64 200 417 684 99 1117 283 31 272 6 1069 73 127 36 132 240 698	17 286 663 179 1048 360 597
1559 1134		445 272 1559 1134 14 670 1215
120	445 272 1559 1134 14 670 1215	120 200 309 71 289 100 18
15	445 272 1559 1134 14 670 1215 120 200 309 71 289 100 18	15 55 821 50 187 64 784
1179 199	445 272 1559 1134 14 670 1215 120 200 309 71 289 100 18 15 55 821 50 187 64 784	1179 199 132 900 1210 481 24
5076 1609		2627 1048 202 6 5076 1609 117
799 85	2627 1048 202 6 5076 1609 117	452 48 860 380 799 85 76
7	2627 1048 202 6 5076 1609 117 452 48 860 380 799 85 76	7 9 407 28 1559 1134 354
148	2627 1048 202 6 5076 1609 117 452 48 860 380 799 85 76 7 9 407 28 1559 1134 354	148 421 197 120 448 50 11
1559 1134		245 581 555 1748 1714 1559 1134
1126 558	245 581 555 1748 1714 1559 1134	82 23 1126 558 204 69 53
121	245 581 555 1748 1714 1559 1134 82 23 1126 558 204 69 53	121 21 670 1215 165 26 48
840	245 581 555 1748 1714 1559 1134 82 23 1126 558 204 69 53 121 21 670 1215 165 26 48	840 6 3429 61 756 499 2801
146		146 294 525 26 9 8 191
58	146 294 525 26 9 8 191	58 230 1559 1134 66 265 54
46 2269	146 294 525 26 9 8 191 58 230 1559 1134 66 265 54	202 380 28 17 46 2269 337
101	146 294 525 26 9 8 191 58 230 1559 1134 66 265 54 202 380 28 17 46 2269 337	101 97 1679 1599 3610 53 190
24		24 115 194 40 19 28 104
55 30	24 115 194 40 19 28 104	9 39 9 281 400 55 30
1559 1134	24 115 194 40 19 28 104 9 39 9 281 400 55 30	45 18 222 61 1559 1134 289
481	24 115 194 40 19 28 104 9 39 9 281 400 55 30 45 18 222 61 1559 1134 289	481 21 325 202 204 1186 64
231		231 1215 828 32 22 804 804
27 89	231 1215 828 32 22 804 804	231 1215 1423 32 750 27 89
110 806	231 1215 828 32 22 804 804 231 1215 1423 32 750 27 89	926 6 110 806 1159 62 141
8 30	231 1215 828 32 22 804 804 231 1215 1423 32 750 27 89 926 6 110 806 1159 62 141	287 1869 8 30 1077 167 151
289 41		289 41 352 177 802 111 538
54	289 41 352 177 802 111 538	54 470 408 223 553 226 909
320	289 41 352 177 802 111 538 54 470 408 223 553 226 909	320 42 13 131 30 1243 1133
84	289 41 352 177 802 111 538 54 470 408 223 553 226 909 320 42 13 131 30 1243 1133	84 187 40 330 354 22 1420
302		302 116 177 1133 73 239 2211
8 131	302 116 177 1133 73 239 2211	227 506 8 131 201 32 746
389 376	302 116 177 1133 73 239 2211 227 506 8 131 201 32 746	389 376 18 18 1142 1102 191
12	302 116 177 1133 73 239 2211 227 506 8 131 201 32 746 389 376 18 18 1142 1102 191	12 851 1426 1426 767 122 544
1311		1311 694 293 186 354 224 168
58	1311 694 293 186 354 224 168	58 230 46 55 66 911 691
334 719	1311 694 293 186 354 224 168 58 230 46 55 66 911 691	28 696 16 364 131 334 719
732 92	1311 694 293 186 354 224 168 58 230 46 55 66 911 691 28 696 16 364 131 334 719	1356 297 56 162 181 732 92
202		202 413 268 2431 42 307 248
923 226	202 413 268 2431 42 307 248	923 226 274 40 56 134 86
224 8	202 413 268 2431 42 307 248 923 226 274 40 56 134 86	7 58 224 8 1523 1531 191
265 443	202 413 268 2431 42 307 248 923 226 274 40 56 134 86 7 58 224 8 1523 1531 191	265 443 476 65 104 266 509
180		180 393 19 188 97 701 77
542 1327	180 393 19 188 97 701 77	542 1327 60 179 376 13 8
91	180 393 19 188 97 701 77 542 1327 60 179 376 13 8	91 12 645 65 173 20 32
153	180 393 19 188 97 701 77 542 1327 60 179 376 13 8 91 12 645 65 173 20 32	153 108 641 1923 110 2591 17
82		82 863 860 110 683 93 70
1791	82 863 860 110 683 93 70	1791 140 173 3383 86 188 19
38 264	82 863 860 110 683 93 70 1791 140 173 3383 86 188 19	38 264 134 226 37 44 590
95 165	82 863 860 110 683 93 70 1791 140 173 3383 86 188 19 38 264 134 226 37 44 590	952 179 95 165 346 177 133
744 1075		356 36 44 597 744 1075 362
95 1821	356 36 44 597 744 1075 362	95 1821 22 215 503 823 360
16	356 36 44 597 744 1075 362 95 1821 22 215 503 823 360	16 67 379 694 1048 638 1127
125 610	356 36 44 597 744 1075 362 95 1821 22 215 503 823 360 16 67 379 694 1048 638 1127	125 610 1308 107 52 131 202
107		107 109 2490 356 798 151 382
200	107 109 2490 356 798 151 382	200 223 4414 537 823 546 140
133 298	107 109 2490 356 798 151 382 200 223 4414 537 823 546 140	1647 24 5 115 133 298 333
636	107 109 2490 356 798 151 382 200 223 4414 537 823 546 140 1647 24 5 115 133 298 333	636 422 119 187 3383 470 75
1160 3709		7 109 130 1792 135 1160 3709
1866	7 109 130 1792 135 1160 3709	1866 537 70 474 98 74 10
97 1327	7 109 130 1792 135 1160 3709 1866 537 70 474 98 74 10	664 218 97 1327 949 60 798
391	7 109 130 1792 135 1160 3709 1866 537 70 474 98 74 10 664 218 97 1327 949 60 798	391 391 1184 625 180 1313 385
229 1405		188 118 133 229 1405 375 596
537 2333	188 118 133 229 1405 375 596	5851 537 2333 179 1184 101 998
29	188 118 133 229 1405 375 596 5851 537 2333 179 1184 101 998	29 33 19 51 10 2243 409
119	188 118 133 229 1405 375 596 5851 537 2333 179 1184 101 998 29 33 19 51 10 2243 409	119 304 1036 85 199 1146 53
40 364		36 394 40 364 441 180 147
1554 1558	36 394 40 364 441 180 147	114 575 1554 1558 23 360 163
704	36 394 40 364 441 180 147 114 575 1554 1558 23 360 163	704 102 92 4540 56 676 26
446 1184	36 394 40 364 441 180 147 114 575 1554 1558 23 360 163 704 102 92 4540 56 676 26	161 115 54 22 446 1184 64
1554		1554 904 514 52 2168 261 216
663 179	1554 904 514 52 2168 261 216	56 8 663 179 107 1791 140
31 434	1554 904 514 52 2168 261 216 56 8 663 179 107 1791 140	31 434 16 67 364 4052 124
206 367	1554 904 514 52 2168 261 216 56 8 663 179 107 1791 140 31 434 16 67 364 4052 124	5 668 117 39 213 206 367
116 165		216 104 17 298 28 116 165
97	216 104 17 298 28 116 165	97 706 66 1197 252 40 56
138	216 104 17 298 28 116 165 97 706 66 1197 252 40 56	138 19 843 134 114 37 330
398 263	216 104 17 298 28 116 165 97 706 66 1197 252 40 56 138 19 843 134 114 37 330	5 71 16 52 31 398 263
106		106 153 328 36 49 1270 1395
1128 110	106 153 328 36 49 1270 1395	25 120 1128 110 55 225 528
730	106 153 328 36 49 1270 1395 25 120 1128 110 55 225 528	730 542 1990 1270 297 6 157
277	106 153 328 36 49 1270 1395 25 120 1128 110 55 225 528 730 542 1990 1270 297 6 157	277 171 362 169 397 167 457
1151		1151 414 864 1882 534 45 65
565 67	1151 414 864 1882 534 45 65	87 12 565 67 84 10 86
11 482	1151 414 864 1882 534 45 65 87 12 565 67 84 10 86	101 1136 19 188 11 482 199
2527 248	1151 414 864 1882 534 45 65 87 12 565 67 84 10 86 101 1136 19 188 11 482 199	5 42 258 62 77 2527 248
179		179 26 79 36 60 250 382
379	179 26 79 36 60 250 382	379 869 61 179 218 6 517
5	179 26 79 36 60 250 382 379 869 61 179 218 6 517	5 359 1049 421 4909 1076 970
542 1193	179 26 79 36 60 250 382 379 869 61 179 218 6 517 5 359 1049 421 4909 1076 970	521 275 542 1193 897 110 907
70		70 275 2976 5077 2290 66 2543
63 352	70 275 2976 5077 2290 66 2543	63 352 565 1162 834 1969 4910
426 961	70 275 2976 5077 2290 66 2543 63 352 565 1162 834 1969 4910	426 961 203 107 570 215 150
181	70 275 2976 5077 2290 66 2543 63 352 565 1162 834 1969 4910 426 961 203 107 570 215 150	181 181 13 305 366 177 8
387 168		387 168 1185 194 240 2058 3339
102	387 168 1185 194 240 2058 3339	102 53 226 1516 86 224 315
2473	387 168 1185 194 240 2058 3339 102 53 226 1516 86 224 315	2473 3463 1958 190 481 5 24
180	387 168 1185 194 240 2058 3339 102 53 226 1516 86 224 315 2473 3463 1958 190 481 5 24	180 512 57 209 21 20 241
2408 3611		212 165 13 110 2408 3611 393
55	212 165 13 110 2408 3611 393	55 195 188 19 588 277 2491
391	212 165 13 110 2408 3611 393 55 195 188 19 588 277 2491	391 391 142 171 184 1239 94
3657 4144	212 165 13 110 2408 3611 393 55 195 188 19 588 277 2491 391 391 142 171 184 1239 94	3657 4144 12 2543 1844 5 300
235		235 111 793 793 177 2559 2559
5	235 111 793 793 177 2559 2559	5 427 325 176 110 142 1469
46	235 111 793 793 177 2559 2559 5 427 325 176 110 142 1469	46 290 179 961 22 182 521
41 81	235 111 793 793 177 2559 2559 5 427 325 176 110 142 1469 46 290 179 961 22 182 521	217 591 13 149 68 41 81
1146		1146 85 9 26 1146 200 92
211 1137	1146 85 9 26 1146 200 92	179 2039 600 17 179 211 1137
1201 317	1146 85 9 26 1146 200 92 179 2039 600 17 179 211 1137	15 4319 9 78 264 1201 317
708 168	1146 85 9 26 1146 200 92 179 2039 600 17 179 211 1137 15 4319 9 78 264 1201 317	1150 783 81 210 285 708 168
210		210 683 407 431 542 356 544
160 196	210 683 407 431 542 356 544	1094 1923 160 196 488 147 78
63 1239	210 683 407 431 542 356 544 1094 1923 160 196 488 147 78	63 1239 1133 26 6 53 327
52	210 683 407 431 542 356 544 1094 1923 160 196 488 147 78 63 1239 1133 26 6 53 327	52 28 165 62 646 58 428
8 971		4911 4643 1211 1211 8 971 971
1499 2897	4911 4643 1211 1211 8 971 971	1090 1230 2290 75 1499 2897 95
708 1250	4911 4643 1211 1211 8 971 971 1090 1230 2290 75 1499 2897 95	256 348 2094 2094 708 1250 633
1210 1101	4911 4643 1211 1211 8 971 971 1090 1230 2290 75 1499 2897 95 256 348 2094 2094 708 1250 633	46 89 1472 91 97 1210 1101
56		56 348 115 605 757 423 712
969	56 348 115 605 757 423 712	969 6 43 58 309 52 131
911 27	56 348 115 605 757 423 712 969 6 43 58 309 52 131	16 364 505 505 911 27 55
81	56 348 115 605 757 423 712 969 6 43 58 309 52 131 16 364 505 505 911 27 55	81 165 210 683 135 38 138
1484		1484 512 202 6 429 488 165
1937	1484 512 202 6 429 488 165	1937 36 16 67 1006 178 232
44	1484 512 202 6 429 488 165 1937 36 16 67 1006 178 232	44 209 58 171 13 418 2277
27 103	1484 512 202 6 429 488 165 1937 36 16 67 1006 178 232 44 209 58 171 13 418 2277	5 278 239 12 506 27 103
12		12 2944 87 4910 7 115 664
184	12 2944 87 4910 7 115 664	184 1239 75 1133 88 146 16
924	12 2944 87 4910 7 115 664 184 1239 75 1133 88 146 16	924 733 887 50 1100 53 1496
469	12 2944 87 4910 7 115 664 184 1239 75 1133 88 146 16 924 733 887 50 1100 53 1496	469 3280 89 524 60 66 961
2290		2290 443 665 75 118 722 538
66	2290 443 665 75 118 722 538	66 961 1064 1048 3070 4219 2002
650 107	2290 443 665 75 118 722 538 66 961 1064 1048 3070 4219 2002	568 271 198 120 16 650 107
192	2290 443 665 75 118 722 538 66 961 1064 1048 3070 4219 2002 568 271 198 120 16 650 107	192 5852 64 1253 180 85 336
91 15		123 319 91 15 189 486 78
1437 26	123 319 91 15 189 486 78	1437 26 52 407 95 243 544
256	123 319 91 15 189 486 78 1437 26 52 407 95 243 544	256 9 113 32 48 2558 370
413 1036	123 319 91 15 189 486 78 1437 26 52 407 95 243 544 256 9 113 32 48 2558 370	1223 420 413 1036 1524 559 2945
134 226		1959 125 262 78 134 226 86
130	1959 125 262 78 134 226 86	130 537 2560 179 568 1160 1616
97	1959 125 262 78 134 226 86 130 537 2560 179 568 1160 1616	97 1327 624 3 554 233 107
842	1959 125 262 78 134 226 86 130 537 2560 179 568 1160 1616 97 1327 624 3 554 233 107	842 304 82 476 27 949 238
209		209 528 204 26 184 443 751
960 163	209 528 204 26 184 443 751	5 960 163 170 330 43 109
657	209 528 204 26 184 443 751 5 960 163 170 330 43 109	657 182 192 1141 13 574 179
165	209 528 204 26 184 443 751 5 960 163 170 330 43 109 657 182 192 1141 13 574 179	165 62 87 974 58 629 6
1437		1437 39 7 3 226 55 56
710	1437 39 7 3 226 55 56	710 557 287 538 481 21 160
3340	1437 39 7 3 226 55 56 710 557 287 538 481 21 160	3340 37 708 6 86 61 493
690 69	1437 39 7 3 226 55 56 710 557 287 538 481 21 160 3340 37 708 6 86 61 493	19 19 690 69 217 591 103
322		322 141 364 133 7 1146 92
101	322 141 364 133 7 1146 92	101 178 262 50 766 1361 168
37	322 141 364 133 7 1146 92 101 178 262 50 766 1361 168	37 935 52 209 558 1803 970
302 19	322 141 364 133 7 1146 92 101 178 262 50 766 1361 168 37 935 52 209 558 1803 970	120 51 302 19 5 243 34
387 147		387 147 352 516 15 391 391
142	387 147 352 516 15 391 391	142 108 41 8 142 108 22
43 289	387 147 352 516 15 391 391 142 108 41 8 142 108 22	43 289 98 121 16 26 45
6	387 147 352 516 15 391 391 142 108 41 8 142 108 22 43 289 98 121 16 26 45	6 80 130 23 113 117 187
452 744		666 58 452 744 107 1453 570
771 376	666 58 452 744 107 1453 570	33 146 1541 771 376 1260 140
101 97 412	666 58 452 744 107 1453 570 33 146 1541 771 376 1260 140	245 64 106 765 101 97 412
37	666 58 452 744 107 1453 570 33 146 1541 771 376 1260 140 245 64 106 765 101 97 412	37 494 197 76 60 66 258
15		15 203 2457 64 1691 1936 165
1437 22	15 203 2457 64 1691 1936 165	1437 22 477 477 27 77 103
53	15 203 2457 64 1691 1936 165 1437 22 477 477 27 77 103	53 6 59 50 115 78 45
104 557	15 203 2457 64 1691 1936 165 1437 22 477 477 27 77 103 53 6 59 50 115 78 45	104 557 262 9 83 303 160
70		70 19 7 1043 507 52 146
779	70 19 7 1043 507 52 146	779 252 44 209 429 322 810
30 422	70 19 7 1043 507 52 146 779 252 44 209 429 322 810	1465 105 138 2421 736 30 422
79	70 19 7 1043 507 52 146 779 252 44 209 429 322 810 1465 105 138 2421 736 30 422	79 130 445 488 26 22 1001
1590		1590 364 70 50 663 101 319
323 448	1590 364 70 50 663 101 319	323 448 78 11 354 15 194
82 64	1590 364 70 50 663 101 319 323 448 78 11 354 15 194	105 94 82 64 21 846 329
343	1590 364 70 50 663 101 319 323 448 78 11 354 15 194 105 94 82 64 21 846 329	343 1023 1002 787 159 298 12
356		356 36 202 50 177 29 352
192 266	356 36 202 50 177 29 352	26 1106 239 12 413 192 266
507	356 36 202 50 177 29 352 26 1106 239 12 413 192 266	507 835 84 245 70 221 110
16	356 36 202 50 177 29 352 26 1106 239 12 413 192 266 507 835 84 245 70 221 110	16 269 46 771 145 2977 72
1773		1773 8 186 181 1146 85 56
111 129	1773 8 186 181 1146 85 56	59 50 111 129 454 1936 165
708	1773 8 186 181 1146 85 56 59 50 111 129 454 1936 165	708 179 55 196 63 185 210
641	1773 8 186 181 1146 85 56 59 50 111 129 454 1936 165 708 179 55 196 63 185 210	641 2457 58 230 1437 9 39
57		57 56 1133 26 383 216 92
798	57 56 1133 26 383 216 92	798 1494 123 328 635 141 592
387 904	57 56 1133 26 383 216 92 798 1494 123 328 635 141 592	387 904 307 2342 200 107 1714
4415 11	57 56 1133 26 383 216 92 798 1494 123 328 635 141 592 387 904 307 2342 200 107 1714	180 12 2543 179 4415 11 1137
1427 1688		1427 1688 448 50 1070 238 191
2355 212	1427 1688 448 50 1070 238 191	2355 212 165 62 107 429 6
533	1427 1688 448 50 1070 238 191 2355 212 165 62 107 429 6	533 26 288 274 57 180 471
507	1427 1688 448 50 1070 238 191 2355 212 165 62 107 429 6 533 26 288 274 57 180 471	507 52 205 835 7 70 13
329		329 317 1163 1163 223 3384 1297
1437 78	329 317 1163 1163 223 3384 1297	1437 78 2083 150 417 486 147
2013	329 317 1163 1163 223 3384 1297 1437 78 2083 150 417 486 147	2013 1198 1413 179 641 1882 118
15	329 317 1163 1163 223 3384 1297 1437 78 2083 150 417 486 147 2013 1198 1413 179 641 1882 118	15 342 2333 238 57 135 64
92 544		133 147 342 35 1146 92 544
872	133 147 342 35 1146 92 544	872 1172 200 30 724 88 592
1833 64	133 147 342 35 1146 92 544 872 1172 200 30 724 88 592	10 199 1833 64 452 116 2978
1804 71	133 147 342 35 1146 92 544 872 1172 200 30 724 88 592 10 199 1833 64 452 116 2978	121 4145 60 1804 71 195 78
60 2978		139 1607 147 85 60 2978 76
641	139 1607 147 85 60 2978 76	641 718 449 449 469 319 886
1555 133	139 1607 147 85 60 2978 76 641 718 449 449 469 319 886	1555 133 317 112 53 121 383
725	139 1607 147 85 60 2978 76 641 718 449 449 469 319 886 1555 133 317 112 53 121 383	725 358 123 195 370 71 11
488		488 151 262 50 27 77 103
60	488 151 262 50 27 77 103	60 141 101 1900 311 93 56
133	488 151 262 50 27 77 103 60 141 101 1900 311 93 56	133 125 588 1126 374 558 1024
270 94	488 151 262 50 27 77 103 60 141 101 1900 311 93 56 133 125 588 1126 374 558 1024	10 6 270 94 386 293 229
2333 718		666 58 2333 718 494 329 3815
319 229	666 58 2333 718 494 329 3815	319 229 318 1025 306 293 229
101 364	666 58 2333 718 494 329 3815 319 229 318 1025 306 293 229	101 364 254 289 33 34 356
1115 103	666 58 2333 718 494 329 3815 319 229 318 1025 306 293 229 101 364 254 289 33 34 356	959 182 636 310 823 1115 103
9 1448		329 85 1245 38 158 9 1448
431 11	329 85 1245 38 158 9 1448	507 374 431 11 1075 184 291
179 150	329 85 1245 38 158 9 1448 507 374 431 11 1075 184 291	447 182 3430 37 381 179 150
645 107	329 85 1245 38 158 9 1448 507 374 431 11 1075 184 291 447 182 3430 37 381 179 150	12 80 645 107 429 6 899
16 330		329 389 301 817 16 330 334
168 75	329 389 301 817 16 330 334	54 8 119 369 594 168 75
37	329 389 301 817 16 330 334 54 8 119 369 594 168 75	37 494 192 1141 52 28 58
403	329 389 301 817 16 330 334 54 8 119 369 594 168 75 37 494 192 1141 52 28 58	403 114 222 771 358 44 209
298		298 62 1356 892 38 196 162
861	298 62 1356 892 38 196 162	861 26 1293 238 339 1390 839
13 141	298 62 1356 892 38 196 162 861 26 1293 238 339 1390 839	817 176 188 1250 602 13 141
969 6	298 62 1356 892 38 196 162 861 26 1293 238 339 1390 839 817 176 188 1250 602 13 141	86 21 969 6 332 334 582
959		959 210 41 81 277 7 36
101 319	959 210 41 81 277 7 36	20 114 493 91 828 101 319
13	959 210 41 81 277 7 36 20 114 493 91 828 101 319	13 110 142 1469 70 15 171
298	959 210 41 81 277 7 36 20 114 493 91 828 101 319 13 110 142 1469 70 15 171	298 62 136 14 91 128 12
90		90 473 3148 1666 268 123 19
145 432	90 473 3148 1666 268 123 19	208 185 146 975 403 145 432
25	90 473 3148 1666 268 123 19 208 185 146 975 403 145 432	25 139 113 86 52 507 374
5	90 473 3148 1666 268 123 19 208 185 146 975 403 145 432 25 139 113 86 52 507 374	5 29 33 512 300 1399 16
56		56 8 52 28 161 325 368
1082	56 8 52 28 161 325 368	1082 67 120 1361 93 485 228
708	56 8 52 28 161 325 368 1082 67 120 1361 93 485 228	708 6 45 15 1150 783 743
18 199	56 8 52 28 161 325 368 1082 67 120 1361 93 485 228 708 6 45 15 1150 783 743	34 1146 11 18 199 395 127
244 1522		2592 1991 244 1522 59 1327 117
66	2592 1991 244 1522 59 1327 117	66 4220 13 173 598 203 76
141 162	2592 1991 244 1522 59 1327 117 66 4220 13 173 598 203 76	1582 210 40 131 667 141 162
229	2592 1991 244 1522 59 1327 117 66 4220 13 173 598 203 76 1582 210 40 131 667 141 162	229 81 1135 464 108 165 215
206 6		206 6 694 537 620 34 11
102 5 76	206 6 694 537 620 34 11	158 1309 283 151 102 5 76
644	206 6 694 537 620 34 11 158 1309 283 151 102 5 76	644 228 1978 1485 165 17 1250
238 429	206 6 694 537 620 34 11 158 1309 283 151 102 5 76 644 228 1978 1485 165 17 1250	1423 115 123 30 238 429 215
112 50		112 50 160 86 5 492 13
187	112 50 160 86 5 492 13	187 1293 442 800 177 538 82
19	112 50 160 86 5 492 13 187 1293 442 800 177 538 82	19 19 61 453 77 34 45
55 195	112 50 160 86 5 492 13 187 1293 442 800 177 538 82 19 19 61 453 77 34 45	792 42 55 195 158 374 6
78 1147		78 1147 497 15 2512 1170 939
63 535	78 1147 497 15 2512 1170 939	144 26 63 535 196 625 6
1192 820	78 1147 497 15 2512 1170 939 144 26 63 535 196 625 6	7 45 1192 820 5 243 1715
450	78 1147 497 15 2512 1170 939 144 26 63 535 196 625 6 7 45 1192 820 5 243 1715	450 1380 239 484 37 79 13
311		311 93 49 260 10 578 386
231	311 93 49 260 10 578 386	231 57 44 67 5 38 496
779 222	311 93 49 260 10 578 386 231 57 44 67 5 38 496	779 222 33 15 607 744 134
309	311 93 49 260 10 578 386 231 57 44 67 5 38 496 779 222 33 15 607 744 134	309 71 3658 286 577 324 18
144 179		202 62 144 179 252 17 234
97 1457	202 62 144 179 252 17 234	22 50 97 1457 765 113 126
265 487	202 62 144 179 252 17 234 22 50 97 1457 765 113 126	5 42 265 487 629 244 15
644	202 62 144 179 252 17 234 22 50 97 1457 765 113 126 5 42 265 487 629 244 15	644 187 296 1938 2029 54 193
7		7 155 905 589 10 739 169
145	7 155 905 589 10 739 169	145 19 1206 330 175 34 83
58	7 155 905 589 10 739 169 145 19 1206 330 175 34 83	58 600 389 1356 38 339 32
151	7 155 905 589 10 739 169 145 19 1206 330 175 34 83 58 600 389 1356 38 339 32	151 61 174 299 68 351 17
46		46 633 33 15 13 8 415
589	46 633 33 15 13 8 415	589 162 10 122 105 395 12
2394	46 633 33 15 13 8 415 589 162 10 122 105 395 12	2394 688 644 48 627 404 284
379	46 633 33 15 13 8 415 589 162 10 122 105 395 12 2394 688 644 48 627 404 284	379 8 79 37 1438 323 1551
209 226		66 162 238 362 209 226 434
1146	66 162 238 362 209 226 434	1146 53 95 285 144 147 56
41 9	66 162 238 362 209 226 434 1146 53 95 285 144 147 56	41 9 5 516 353 846 51
267 140	66 162 238 362 209 226 434 1146 53 95 285 144 147 56 41 9 5 516 353 846 51	7 736 267 140 445 112 160
7		7 286 20 781 23 169 18
161 42	7 286 20 781 23 169 18	93 485 10 2214 161 42 496
33	7 286 20 781 23 169 18 93 485 10 2214 161 42 496	33 15 5 503 810 61 3612
556 133	7 286 20 781 23 169 18 93 485 10 2214 161 42 496 33 15 5 503 810 61 3612	1212 44 48 386 556 133 352
28 149		96 104 62 298 28 149 102
222 112	96 104 62 298 28 149 102	374 6 222 112 31 130 136
2137 160	96 104 62 298 28 149 102 374 6 222 112 31 130 136	2137 160 52 15 38 196 32
70 9	96 104 62 298 28 149 102 374 6 222 112 31 130 136 2137 160 52 15 38 196 32	2103 179 70 9 73 59 9
135		135 19 1381 1546 68 41 78
25 746	135 19 1381 1546 68 41 78	710 557 22 9 259 25 746
8 637	135 19 1381 1546 68 41 78 710 557 22 9 259 25 746	33 15 442 24 8 637 739
2185 2146	135 19 1381 1546 68 41 78 710 557 22 9 259 25 746 33 15 442 24 8 637 739	2898 140 81 45 2185 2146 428
35		35 116 63 9 2176 3613 18
144 1581	35 116 63 9 2176 3613 18	160 6 493 275 144 1581 122
38 952	35 116 63 9 2176 3613 18 160 6 493 275 144 1581 122	10 361 209 51 136 38 952
591 217	35 116 63 9 2176 3613 18 160 6 493 275 144 1581 122 10 361 209 51 136 38 952	591 217 3181 2717 44 5 24
102 153		1680 1035 109 102 153 180 638
95 165	1680 1035 109 102 153 180 638	78 41 386 167 191 95 165
1989 1231	1680 1035 109 102 153 180 638 78 41 386 167 191 95 165	81 8 5 279 855 1989 1231
102 418	1680 1035 109 102 153 180 638 78 41 386 167 191 95 165 81 8 5 279 855 1989 1231	1170 1320 102 418 252 27 827
41		41 26 19 19 118 96 419
161 494	41 26 19 19 118 96 419	19 131 161 494 185 1581 24
373	41 26 19 19 118 96 419 19 131 161 494 185 1581 24	373 373 9 147 8 15 553
817 153	41 26 19 19 118 96 419 19 131 161 494 185 1581 24 373 373 9 147 8 15 553	577 170 817 153 115 81 122
2156		2156 382 860 1516 577 170 72
19 188 18	2156 382 860 1516 577 170 72	542 1127 12 2543 19 188 18
562	2156 382 860 1516 577 170 72 542 1127 12 2543 19 188 18	562 124 41 2147 7 37 204
38 196	2156 382 860 1516 577 170 72 542 1127 12 2543 19 188 18 562 124 41 2147 7 37 204	1263 9 319 27 161 38 196
8 103		467 236 8 103 74 55 1543
269 1063	467 236 8 103 74 55 1543	269 1063 1031 1742 1924 760 209
582	467 236 8 103 74 55 1543 269 1063 1031 1742 1924 760 209	582 1084 252 45 34 341 203
92 104	467 236 8 103 74 55 1543 269 1063 1031 1742 1924 760 209 582 1084 252 45 34 341 203	613 167 102 92 104 471 140
72 196		72 196 513 47 277 167 102
103 27	72 196 513 47 277 167 102	736 388 103 27 115 6 80
240 678	72 196 513 47 277 167 102 736 388 103 27 115 6 80	240 678 29 134 95 4767 50
267	72 196 513 47 277 167 102 736 388 103 27 115 6 80 240 678 29 134 95 4767 50	267 15 2513 41 70 59 9
1090 1230		27 250 1090 1230 56 84 695
851	27 250 1090 1230 56 84 695	851 538 71 21 201 12 18
265 806	27 250 1090 1230 56 84 695 851 538 71 21 201 12 18	123 52 265 806 346 87 2057
74	27 250 1090 1230 56 84 695 851 538 71 21 201 12 18 123 52 265 806 346 87 2057	74 14 146 160 342 91 602
811		811 194 5 3305 57 70 50
112	811 194 5 3305 57 70 50	112 493 29 33 7 59 276
214	811 194 5 3305 57 70 50 112 493 29 33 7 59 276	214 498 378 37 38 347 32
63	811 194 5 3305 57 70 50 112 493 29 33 7 59 276 214 498 378 37 38 347 32	63 1382 101 167 108 2609 41
463 95		88 619 463 95 10 409 45
545	88 619 463 95 10 409 45	545 133 101 564 37 79 76
277	88 619 463 95 10 409 45 545 133 101 564 37 79 76	277 24 5 21 2898 140 1278
427	88 619 463 95 10 409 45 545 133 101 564 37 79 76 277 24 5 21 2898 140 1278	427 23 209 3242 285 110 11
1009 488		83 9 1350 1350 1009 488 92
85 657	83 9 1350 1350 1009 488 92	233 154 85 657 76 212 274
514 168	83 9 1350 1350 1009 488 92 233 154 85 657 76 212 274	374 6 60 284 96 514 168
689 433	83 9 1350 1350 1009 488 92 233 154 85 657 76 212 274 374 6 60 284 96 514 168	193 80 222 90 791 689 433
7		7 401 256 807 10 208 780
210	7 401 256 807 10 208 780	210 8 186 116 180 172 1480
38 48	7 401 256 807 10 208 780 210 8 186 116 180 172 1480	38 48 65 21 41 81 112
161 14	7 401 256 807 10 208 780 210 8 186 116 180 172 1480 38 48 65 21 41 81 112	161 14 44 37 640 182 6
7		7 286 20 781 23 169 18
161 42	7 286 20 781 23 169 18	93 485 10 2214 161 42 496
33	7 286 20 781 23 169 18 93 485 10 2214 161 42 496	33 15 5 503 810 61 3612
556 133	7 286 20 781 23 169 18 93 485 10 2214 161 42 496 33 15 5 503 810 61 3612	1212 44 48 386 556 133 352
38 42		256 147 1058 1329 18 38 42
695	256 147 1058 1329 18 38 42	695 177 102 85 15 142 267
88	256 147 1058 1329 18 38 42 695 177 102 85 15 142 267	88 285 321 597 146 1484 1004
1041 36	256 147 1058 1329 18 38 42 695 177 102 85 15 142 267 88 285 321 597 146 1484 1004	119 292 247 564 68 1041 36
40 8		737 140 397 774 14 40 8
1199	737 140 397 774 14 40 8	1199 28 1581 12 369 96 87
765	737 140 397 774 14 40 8 1199 28 1581 12 369 96 87	765 525 373 813 341 252 43
41 172	737 140 397 774 14 40 8 1199 28 1581 12 369 96 87 765 525 373 813 341 252 43	41 172 47 68 199 122 17
356		356 36 154 1572 68 1791 140
103 107	356 36 154 1572 68 1791 140	738 27 77 103 107 1453 570
251 49	356 36 154 1572 68 1791 140 738 27 77 103 107 1453 570	251 49 415 33 119 213 781
325	356 36 154 1572 68 1791 140 738 27 77 103 107 1453 570 251 49 415 33 119 213 781	325 202 56 162 161 307 307
60		60 141 101 22 959 26 56
156	60 141 101 22 959 26 56	156 223 4414 537 107 3522 229
2608 2779	60 141 101 22 959 26 56 156 223 4414 537 107 3522 229	2608 2779 2168 458 2343 1794 60
334	60 141 101 22 959 26 56 156 223 4414 537 107 3522 229 2608 2779 2168 458 2343 1794 60	334 823 360 86 161 5 638
335 329		335 329 120 11 916 1159 258
413	335 329 120 11 916 1159 258	413 19 5 37 68 2260 4221
125	335 329 120 11 916 1159 258 413 19 5 37 68 2260 4221	125 610 16 26 717 638 1127
594 1026 215	335 329 120 11 916 1159 258 413 19 5 37 68 2260 4221 125 610 16 26 717 638 1127	594 1026 215 17 739 1049 209
769 537		769 537 310 53 769 640 39
78	769 537 310 53 769 640 39	78 48 4320 5281 386 717 638
590 179	769 537 310 53 769 640 39 78 48 4320 5281 386 717 638	63 185 98 33 125 590 179
101 364	769 537 310 53 769 640 39 78 48 4320 5281 386 717 638 63 185 98 33 125 590 179	101 364 5 279 46 1681 56
1036 229		1036 229 188 19 871 676 251
1870	1036 229 188 19 871 676 251	1870 1198 729 1749 1494 147 61
1866	1036 229 188 19 871 676 251 1870 1198 729 1749 1494 147 61	1866 110 70 530 5 171 6
641	1036 229 188 19 871 676 251 1870 1198 729 1749 1494 147 61 1866 110 70 530 5 171 6	641 225 93 221 130 537 179
178 692 394		341 237 178 692 394 16 154
332 154	341 237 178 692 394 16 154	79 1016 154 6 725 332 154
46	341 237 178 692 394 16 154 79 1016 154 6 725 332 154	46 94 689 294 521 484 60
86	341 237 178 692 394 16 154 79 1016 154 6 725 332 154 46 94 689 294 521 484 60	86 385 209 1118 400 239 19
154 1013		154 202 154 1013 14 174 154
16	154 202 154 1013 14 174 154	16 624 16 154 2063 106 245
37	154 202 154 1013 14 174 154 16 624 16 154 2063 106 245	37 166 694 473 57 145 221
20	154 202 154 1013 14 174 154 16 624 16 154 2063 106 245 37 166 694 473 57 145 221	20 29 189 94 7 70 19
165 80		641 6 186 842 1936 165 80
165	641 6 186 842 1936 165 80	165 26 287 538 185 28 102
572	641 6 186 842 1936 165 80 165 26 287 538 185 28 102	572 166 91 128 1119 113 289
120	641 6 186 842 1936 165 80 165 26 287 538 185 28 102 572 166 91 128 1119 113 289	120 8 7 58 104 262 9
93		93 50 101 22 60 15 2409
210	93 50 101 22 60 15 2409	210 8 186 679 96 391 391
106	93 50 101 22 60 15 2409 210 8 186 679 96 391 391	106 160 62 150 10 24 1470
16	93 50 101 22 60 15 2409 210 8 186 679 96 391 391 106 160 62 150 10 24 1470	16 61 79 6 5 249 44
311		311 3523 627 4321 1428 25 292
7	311 3523 627 4321 1428 25 292	7 325 811 738 93 228 19
707	311 3523 627 4321 1428 25 292 7 325 811 738 93 228 19	707 345 761 2014 121 31 417
110 472	311 3523 627 4321 1428 25 292 7 325 811 738 93 228 19 707 345 761 2014 121 31 417	33 15 38 264 10 110 472
722 140		722 140 19 188 78 108 550
199	722 140 19 188 78 108 550	199 302 1140 1728 119 60 109
547	722 140 19 188 78 108 550 199 302 1140 1728 119 60 109	547 33 41 185 7 34 112
388	722 140 19 188 78 108 550 199 302 1140 1728 119 60 109 547 33 41 185 7 34 112	388 15 22 1001 59 50 6
993 723		677 631 993 723 562 202 1166
161	677 631 993 723 562 202 1166	161 451 102 298 506 58 293
25	677 631 993 723 562 202 1166 161 451 102 298 506 58 293	25 290 66 1526 1227 1648 167
40	677 631 993 723 562 202 1166 161 451 102 298 506 58 293 25 290 66 1526 1227 1648 167	40 238 7 289 28 29 216
173 67		105 292 598 342 1546 173 67
161	105 292 598 342 1546 173 67	161 397 338 642 196 10 84
45	105 292 598 342 1546 173 67 161 397 338 642 196 10 84	45 36 145 50 5 23 34
71	105 292 598 342 1546 173 67 161 397 338 642 196 10 84 45 36 145 50 5 23 34	71 286 199 15 56 8 191
93		93 32 815 6 254 32 1595
36	93 32 815 6 254 32 1595	36 367 59 50 175 83 34
957	93 32 815 6 254 32 1595 36 367 59 50 175 83 34	957 216 666 58 925 6 470
79	93 32 815 6 254 32 1595 36 367 59 50 175 83 34 957 216 666 58 925 6 470	79 647 95 258 31 2081 168
141 258		141 258 794 68 350 9 593
72 127	141 258 794 68 350 9 593	783 333 72 127 115 348 974
941 85	141 258 794 68 350 9 593 783 333 72 127 115 348 974	941 85 142 757 373 10 6
460	141 258 794 68 350 9 593 783 333 72 127 115 348 974 941 85 142 757 373 10 6	460 14 60 22 38 445 495
32 32		32 32 22 9 10 65 18
839 659	32 32 22 9 10 65 18	839 659 81 213 334 560 822
232	32 32 22 9 10 65 18 839 659 81 213 334 560 822	232 6 106 94 82 195 321
88	32 32 22 9 10 65 18 839 659 81 213 334 560 822 232 6 106 94 82 195 321	88 26 1274 2331 53 25 419
4051		4051 240 69 22 1188 240 35
391	4051 240 69 22 1188 240 35	391 391 224 598 20 114 199
5	4051 240 69 22 1188 240 35 391 391 224 598 20 114 199	5 42 516 3003 761 18 607
43	4051 240 69 22 1188 240 35 391 391 224 598 20 114 199 5 42 516 3003 761 18 607	43 94 33 6 1861 29 637
81		81 1948 1661 659 1832 5 327
268	81 1948 1661 659 1832 5 327	268 139 857 11 10 475 96
55 49	81 1948 1661 659 1832 5 327 268 139 857 11 10 475 96	1340 986 55 49 828 333 54
1720 2215	81 1948 1661 659 1832 5 327 268 139 857 11 10 475 96 1340 986 55 49 828 333 54	1720 2215 16 262 1214 121 458
56		56 11 38 985 301 627 582
31	56 11 38 985 301 627 582	31 753 308 1819 2169 1391 1646
1735 590	56 11 38 985 301 627 582 31 753 308 1819 2169 1391 1646	1735 590 596 238 83 376 15
92	56 11 38 985 301 627 582 31 753 308 1819 2169 1391 1646 1735 590 596 238 83 376 15	92 884 3385 3559 37 79 788
115		115 11 41 26 240 391 391
57	115 11 41 26 240 391 391	57 15 100 360 51 107 474
84	115 11 41 26 240 391 391 57 15 100 360 51 107 474	84 245 653 67 537 63 167
336 77	115 11 41 26 240 391 391 57 15 100 360 51 107 474 84 245 653 67 537 63 167	481 668 336 77 358 317 44
106		106 153 328 36 49 1270 1395
1128 110	106 153 328 36 49 1270 1395	25 120 1128 110 55 225 528
730	106 153 328 36 49 1270 1395 25 120 1128 110 55 225 528	730 542 1990 1270 297 6 157
277	106 153 328 36 49 1270 1395 25 120 1128 110 55 225 528 730 542 1990 1270 297 6 157	277 171 362 169 397 167 457
387 147		387 147 352 516 15 391 391
142	387 147 352 516 15 391 391	142 108 41 8 142 108 22
43 289	387 147 352 516 15 391 391 142 108 41 8 142 108 22	43 289 2979 121 16 26 14
6	387 147 352 516 15 391 391 142 108 41 8 142 108 22 43 289 2979 121 16 26 14	6 80 130 23 113 117 187
179		179 26 79 36 598 1729 382
379	179 26 79 36 598 1729 382	379 2628 61 179 218 6 517
5	179 26 79 36 598 1729 382 379 2628 61 179 218 6 517	5 359 1049 421 3071 1076 970
542 1193	179 26 79 36 598 1729 382 379 2628 61 179 218 6 517 5 359 1049 421 3071 1076 970	521 275 542 1193 897 110 907
194		194 694 2410 2410 388 19 71
1290 167	194 694 2410 2410 388 19 71	1290 167 246 246 107 1305 95
41	194 694 2410 2410 388 19 71 1290 167 246 246 107 1305 95	41 26 693 62 10 43 241
781	194 694 2410 2410 388 19 71 1290 167 246 246 107 1305 95 41 26 693 62 10 43 241	781 132 307 212 531 248 1060
91 91		91 91 107 474 220 4912 177
63	91 91 107 474 220 4912 177	63 63 5 2334 349 366 128
88	91 91 107 474 220 4912 177 63 63 5 2334 349 366 128	88 768 49 873 70 19 134
37	91 91 107 474 220 4912 177 63 63 5 2334 349 366 128 88 768 49 873 70 19 134	37 614 216 457 199 874 675
951 4146		189 2039 951 4146 224 343 1560
2029	189 2039 951 4146 224 343 1560	2029 29 1206 66 387 147 245
216 96	189 2039 951 4146 224 343 1560 2029 29 1206 66 387 147 245	44 36 60 4147 300 216 96
561 285	189 2039 951 4146 224 343 1560 2029 29 1206 66 387 147 245 44 36 60 4147 300 216 96	561 285 576 642 313 105 292
141		141 258 188 12 33 88 675
5	141 258 188 12 33 88 675	5 166 184 484 73 101 128
144 1172	141 258 188 12 33 88 675 5 166 184 484 73 101 128	144 1172 1285 17 99 34 45
548 11	141 258 188 12 33 88 675 5 166 184 484 73 101 128 144 1172 1285 17 99 34 45	1149 283 1981 50 37 548 11
2186		2186 67 125 53 620 317 597
972	2186 67 125 53 620 317 597	972 10 7 241 1171 706 405
41	2186 67 125 53 620 317 597 972 10 7 241 1171 706 405	41 9 150 253 4769 325 15
1198	2186 67 125 53 620 317 597 972 10 7 241 1171 706 405 41 9 150 253 4769 325 15	1198 179 79 37 978 2131 6
157		157 42 112 160 160 5 587
13 149	157 42 112 160 160 5 587	10 2201 13 149 71 41 246
547	157 42 112 160 160 5 587 10 2201 13 149 71 41 246	547 608 12 76 89 1029 901
198	157 42 112 160 160 5 587 10 2201 13 149 71 41 246 547 608 12 76 89 1029 901	198 278 1293 242 268 1091 671
239 484		240 400 239 484 220 10 374
251	240 400 239 484 220 10 374	251 49 618 544 136 74 36
1286 23	240 400 239 484 220 10 374 251 49 618 544 136 74 36	849 74 13 8 38 1286 23
58	240 400 239 484 220 10 374 251 49 618 544 136 74 36 849 74 13 8 38 1286 23	58 11 186 458 199 122 12
784		784 24 576 642 327 544 118
41	784 24 576 642 327 544 118	41 26 414 67 206 11 732
1130 519	784 24 576 642 327 544 118 41 26 414 67 206 11 732	1130 519 275 1682 775 127 840
92 1203	784 24 576 642 327 544 118 41 26 414 67 206 11 732 1130 519 275 1682 775 127 840	46 772 92 1203 669 201 6
231		231 28 84 306 57 28 11
724	231 28 84 306 57 28 11	724 49 264 13 130 113 117
106	231 28 84 306 57 28 11 724 49 264 13 130 113 117	106 196 109 182 10 396 51
343	231 28 84 306 57 28 11 724 49 264 13 130 113 117 106 196 109 182 10 396 51	343 65 30 62 14 858 3464
591		591 217 13 41 88 65 39
652	591 217 13 41 88 65 39	652 1218 1345 451 337 291 758
1143	591 217 13 41 88 65 39 652 1218 1345 451 337 291 758	1143 596 177 1102 223 8 45
27 103	591 217 13 41 88 65 39 652 1218 1345 451 337 291 758 1143 596 177 1102 223 8 45	224 598 239 12 506 27 103
2187		2187 2528 10 273 5 107 363
581	2187 2528 10 273 5 107 363	581 225 15 68 757 941 85
307	2187 2528 10 273 5 107 363 581 225 15 68 757 941 85	307 535 1622 110 151 17 411
192	2187 2528 10 273 5 107 363 581 225 15 68 757 941 85 307 535 1622 110 151 17 411	192 27 13 8 251 182 454
2514		2514 566 366 12 1457 60 2013
275	2514 566 366 12 1457 60 2013	275 143 509 181 885 63 472
2003 67	2514 566 366 12 1457 60 2013 275 143 509 181 885 63 472	1172 457 2003 67 10 6 42
1118 418	2514 566 366 12 1457 60 2013 275 143 509 181 885 63 472 1172 457 2003 67 10 6 42	319 26 1880 1882 469 1118 418
693		693 78 1339 680 181 105 1219
322 936	693 78 1339 680 181 105 1219	41 803 322 936 243 946 946
6	693 78 1339 680 181 105 1219 41 803 322 936 243 946 946	6 30 113 20 13 84 1014
1611 2047	693 78 1339 680 181 105 1219 41 803 322 936 243 946 946 6 30 113 20 13 84 1014	5 375 75 2015 29 1611 2047
390		390 657 366 177 1907 1341 1341
849	390 657 366 177 1907 1341 1341	849 74 93 180 380 225 810
79	390 657 366 177 1907 1341 1341 849 74 93 180 380 225 810	79 1016 146 11 5 69 134
596 8	390 657 366 177 1907 1341 1341 849 74 93 180 380 225 810 79 1016 146 11 5 69 134	596 8 1552 217 378 55 538
41		41 26 551 12 1228 5 916
10	41 26 551 12 1228 5 916	10 32 2270 2148 98 1143 596
110 445	41 26 551 12 1228 5 916 10 32 2270 2148 98 1143 596	663 614 81 780 316 110 445
83 517	41 26 551 12 1228 5 916 10 32 2270 2148 98 1143 596 663 614 81 780 316 110 445	302 1573 107 590 161 83 517
2529		2529 12 404 1574 1398 41 1480
53 451	2529 12 404 1574 1398 41 1480	53 451 1443 677 1050 755 13
1034 317	2529 12 404 1574 1398 41 1480 53 451 1443 677 1050 755 13	72 110 301 273 1034 317 68
60 39	2529 12 404 1574 1398 41 1480 53 451 1443 677 1050 755 13 72 110 301 273 1034 317 68	31 114 1071 774 60 39 6
41		41 89 167 411 135 57 36
87 12	41 89 167 411 135 57 36	86 51 87 12 626 60 12
24 14	41 89 167 411 135 57 36 86 51 87 12 626 60 12	494 1914 13 131 24 14 32
860 110	41 89 167 411 135 57 36 86 51 87 12 626 60 12 494 1914 13 131 24 14 32	121 114 860 110 285 30 603
77		77 213 188 147 12 104 111
95 165	77 213 188 147 12 104 111	145 12 95 165 46 105 292
79	77 213 188 147 12 104 111 145 12 95 165 46 105 292	79 130 485 110 76 97 2004
429 834	77 213 188 147 12 104 111 145 12 95 165 46 105 292 79 130 485 110 76 97 2004	533 386 461 6 429 834 1416
41 27		101 425 1570 62 41 27 77
13 131	101 425 1570 62 41 27 77	13 131 2187 1173 304 274 8
239 12	101 425 1570 62 41 27 77 13 131 2187 1173 304 274 8	239 12 7 1271 76 10 374
105	101 425 1570 62 41 27 77 13 131 2187 1173 304 274 8 239 12 7 1271 76 10 374	105 316 89 87 316 635 87
101		101 208 1846 36 12 104 2211
70	101 208 1846 36 12 104 2211	70 1667 59 1667 767 122 544
222 413	101 208 1846 36 12 104 2211 70 1667 59 1667 767 122 544	222 413 1114 747 18 18 429
25	101 208 1846 36 12 104 2211 70 1667 59 1667 767 122 544 222 413 1114 747 18 18 429	25 68 1100 1293 849 849 428
398 422		5 21 316 12 547 398 422
98	5 21 316 12 547 398 422	98 522 12 65 49 38 543
851	5 21 316 12 547 398 422 98 522 12 65 49 38 543	851 122 357 510 391 391 91
1344 181	5 21 316 12 547 398 422 98 522 12 65 49 38 543 851 122 357 510 391 391 91	1344 181 926 1057 322 322 76
2124 75		2660 162 2124 75 304 518 1525
1935	2660 162 2124 75 304 518 1525	1935 82 12 1574 31 121 92
5	2660 162 2124 75 304 518 1525 1935 82 12 1574 31 121 92	5 29 171 50 8 186 65
18 35	2660 162 2124 75 304 518 1525 1935 82 12 1574 31 121 92 5 29 171 50 8 186 65	105 770 587 18 35 669 691
3614 3306		85 182 3614 3306 45 5 11
38 2031	85 182 3614 3306 45 5 11	319 39 315 42 157 38 2031
25	85 182 3614 3306 45 5 11 319 39 315 42 157 38 2031	25 33 84 159 24 6 134
7	85 182 3614 3306 45 5 11 319 39 315 42 157 38 2031 25 33 84 159 24 6 134	7 15 114 11 7 145 117
2019		2019 326 269 570 49 46 100
636 310	2019 326 269 570 49 46 100	965 22 1335 478 134 636 310
103 245	2019 326 269 570 49 46 100 965 22 1335 478 134 636 310	33 6 2946 275 103 245 655
159 30	2019 326 269 570 49 46 100 965 22 1335 478 134 636 310 33 6 2946 275 103 245 655	5 278 62 504 1398 159 30
366		366 209 1392 3759 138 18 1031
224	366 209 1392 3759 138 18 1031	224 598 37 269 5078 31 263
726	366 209 1392 3759 138 18 1031 224 598 37 269 5078 31 263	726 987 109 73 163 656 1272
5	366 209 1392 3759 138 18 1031 224 598 37 269 5078 31 263 726 987 109 73 163 656 1272	5 1294 41 364 59 139 103
120		120 317 1392 209 1855 1471 727
2947	120 317 1392 209 1855 1471 727	2947 385 356 1484 321 8 971
178	120 317 1392 209 1855 1471 727 2947 385 356 1484 321 8 971	178 269 709 3153 588 44 2301
919	120 317 1392 209 1855 1471 727 2947 385 356 1484 321 8 971 178 269 709 3153 588 44 2301	919 2803 116 318 42 726 987
320 409		320 409 121 190 991 199 170
1119	320 409 121 190 991 199 170	1119 33 79 21 107 474 788
2355 212	320 409 121 190 991 199 170 1119 33 79 21 107 474 788	1805 48 2355 212 609 2445 26
1750 312	320 409 121 190 991 199 170 1119 33 79 21 107 474 788 1805 48 2355 212 609 2445 26	31 2382 1750 312 192 185 17
139 6		5 598 33 6 316 139 6
40	5 598 33 6 316 139 6	40 1063 1489 355 549 37 780
2422	5 598 33 6 316 139 6 40 1063 1489 355 549 37 780	2422 930 1183 1600 482 205 1030
522	5 598 33 6 316 139 6 40 1063 1489 355 549 37 780 2422 930 1183 1600 482 205 1030	522 73 592 748 69 159 129
31 616		31 616 62 504 46 1429 436
891 3431	31 616 62 504 46 1429 436	2318 38 891 3431 243 197 79
8 1455	31 616 62 504 46 1429 436 2318 38 891 3431 243 197 79	204 1217 2899 1031 405 8 1455
334	31 616 62 504 46 1429 436 2318 38 891 3431 243 197 79 204 1217 2899 1031 405 8 1455	334 1649 86 425 21 979 425
63 13		63 13 88 65 561 136 367
288	63 13 88 65 561 136 367	288 959 671 503 301 14 216
1730	63 13 88 65 561 136 367 288 959 671 503 301 14 216	1730 68 22 16 362 5 253
409	63 13 88 65 561 136 367 288 959 671 503 301 14 216 1730 68 22 16 362 5 253	409 274 4222 3816 327 114 1681
2032 1330		35 626 53 202 2032 1330 72
251 6	35 626 53 202 2032 1330 72	294 1361 398 2046 251 6 540
49 324	35 626 53 202 2032 1330 72 294 1361 398 2046 251 6 540	41 133 49 324 465 10 409
619	35 626 53 202 2032 1330 72 294 1361 398 2046 251 6 540 41 133 49 324 465 10 409	619 668 235 16 774 518 352
20		20 15 35 235 22 107 143
60	20 15 35 235 22 107 143	60 319 63 144 197 10 519
98	20 15 35 235 22 107 143 60 319 63 144 197 10 519	98 114 2271 167 76 486 566
304	20 15 35 235 22 107 143 60 319 63 144 197 10 519 98 114 2271 167 76 486 566	304 652 720 12 230 179 2073
22 50		22 50 5 187 276 1146 116
1023 42	22 50 5 187 276 1146 116	1321 17 1023 42 7 443 82
56	22 50 5 187 276 1146 116 1321 17 1023 42 7 443 82	56 8 1341 1341 186 41 356
98	22 50 5 187 276 1146 116 1321 17 1023 42 7 443 82 56 8 1341 1341 186 41 356	98 68 388 367 20 32 6
577		577 195 232 2593 8 136 191
748	577 195 232 2593 8 136 191	748 1106 266 215 96 88 92
1350	577 195 232 2593 8 136 191 748 1106 266 215 96 88 92	1350 1350 77 9 648 356 2661
1495	577 195 232 2593 8 136 191 748 1106 266 215 96 88 92 1350 1350 77 9 648 356 2661	1495 1495 617 167 358 209 34
1282		1282 61 382 286 195 1246 10
120	1282 61 382 286 195 1246 10	120 11 5 1202 7 53 127
1376	1282 61 382 286 195 1246 10 120 11 5 1202 7 53 127	1376 24 761 324 6 114 1861
130	1282 61 382 286 195 1246 10 120 11 5 1202 7 53 127 1376 24 761 324 6 114 1861	130 317 2357 382 586 313 529
712		712 38 78 246 1514 7 474
418	712 38 78 246 1514 7 474	418 319 1006 1178 60 385 22
488	712 38 78 246 1514 7 474 418 319 1006 1178 60 385 22	488 473 266 26 121 117 410
37	712 38 78 246 1514 7 474 418 319 1006 1178 60 385 22 488 473 266 26 121 117 410	37 494 853 223 209 1736 610
266 27		2900 71 712 170 266 27 39
218 264	2900 71 712 170 266 27 39	218 264 366 67 1607 77 229
63 143	2900 71 712 170 266 27 39 218 264 366 67 1607 77 229	99 115 63 143 5 38 42
121 485	2900 71 712 170 266 27 39 218 264 366 67 1607 77 229 99 115 63 143 5 38 42	117 257 121 485 786 1361 173
101 364		101 364 210 450 185 78 610
426 530	101 364 210 450 185 78 610	2826 559 426 530 16 61 187
769 179	101 364 210 450 185 78 610 2826 559 426 530 16 61 187	769 179 55 426 5 24 199
1144 354	101 364 210 450 185 78 610 2826 559 426 530 16 61 187 769 179 55 426 5 24 199	641 6 95 1144 354 100 474
101		101 364 78 450 21 340 844
88	101 364 78 450 21 340 844	88 114 808 2594 36 10 1393
779	101 364 78 450 21 340 844 88 114 808 2594 36 10 1393	779 1034 887 4053 1527 44 209
1837	101 364 78 450 21 340 844 88 114 808 2594 36 10 1393 779 1034 887 4053 1527 44 209	1837 7 381 127 1861 97 66
55 1172		258 78 55 1172 204 76 85
3152	258 78 55 1172 204 76 85	3152 210 53 2001 99 904 363
128	258 78 55 1172 204 76 85 3152 210 53 2001 99 904 363	128 784 335 169 523 49 1689
193	258 78 55 1172 204 76 85 3152 210 53 2001 99 904 363 128 784 335 169 523 49 1689	193 95 668 252 2202 30 503
88		88 69 312 748 22 243 2291
384	88 69 312 748 22 243 2291	384 297 208 28 35 64 54
63 143	88 69 312 748 22 243 2291 384 297 208 28 35 64 54	63 143 197 14 1828 178 2030
167	88 69 312 748 22 243 2291 384 297 208 28 35 64 54 63 143 197 14 1828 178 2030	167 144 29 9 5 686 195
135		135 498 101 1925 426 212 177
7	135 498 101 1925 426 212 177	7 53 60 977 26 63 16
207	135 498 101 1925 426 212 177 7 53 60 977 26 63 16	207 817 78 640 70 56 96
85 1145	135 498 101 1925 426 212 177 7 53 60 977 26 63 16 207 817 78 640 70 56 96	85 1145 77 490 59 50 257
1140 1492		649 538 649 1140 1492 63 63
149	649 538 649 1140 1492 63 63	149 116 5079 246 108 141 246
1435	649 538 649 1140 1492 63 63 149 116 5079 246 108 141 246	1435 104 83 9 2040 386 2765
2766 124	649 538 649 1140 1492 63 63 149 116 5079 246 108 141 246 1435 104 83 9 2040 386 2765	457 368 2766 124 1357 100 824
3562 229		62 19 3562 229 625 1390 1026
76 229	62 19 3562 229 625 1390 1026	33 19 76 229 625 1390 1026
709 1577	62 19 3562 229 625 1390 1026 33 19 76 229 625 1390 1026	474 2446 38 223 2447 709 1577
567 6	62 19 3562 229 625 1390 1026 33 19 76 229 625 1390 1026 474 2446 38 223 2447 709 1577	567 6 46 398 222 1743 67
231		231 93 7 36 169 108 844
460	231 93 7 36 169 108 844	460 247 7 6 107 3759 593
25	231 93 7 36 169 108 844 460 247 7 6 107 3759 593	25 219 231 380 3072 1792 18
117	231 93 7 36 169 108 844 460 247 7 6 107 3759 593 25 219 231 380 3072 1792 18	117 39 99 115 550 22 1423
4322 788		448 62 718 179 465 4322 788
636	448 62 718 179 465 4322 788	636 2781 1232 73 2175 534 169
187	448 62 718 179 465 4322 788 636 2781 1232 73 2175 534 169	187 94 625 6 356 27 26
286 610	448 62 718 179 465 4322 788 636 2781 1232 73 2175 534 169 187 94 625 6 356 27 26	1250 380 86 68 286 610 17
41		41 28 45 6 98 199 475
8	41 28 45 6 98 199 475	8 348 261 58 88 57 46
1591 1662	41 28 45 6 98 199 475 8 348 261 58 88 57 46	319 39 495 977 1591 1662 411
257 1162	41 28 45 6 98 199 475 8 348 261 58 88 57 46 319 39 495 977 1591 1662 411	257 1162 1871 312 1337 1390 426
17 1430		17 1430 438 77 1430 77 9
41 27	17 1430 438 77 1430 77 9	41 27 76 1522 103 931 80
60	17 1430 438 77 1430 77 9 41 27 76 1522 103 931 80	60 512 95 37 57 1298 1607
2261	17 1430 438 77 1430 77 9 41 27 76 1522 103 931 80 60 512 95 37 57 1298 1607	2261 229 1205 116 145 1532 262
60		60 512 2261 229 809 739 147
844 41	60 512 2261 229 809 739 147	844 41 562 1298 1837 973 163
541 788	60 512 2261 229 809 739 147 844 41 562 1298 1837 973 163	541 788 1960 1939 220 16 134
2279 374	60 512 2261 229 809 739 147 844 41 562 1298 1837 973 163 541 788 1960 1939 220 16 134	2279 374 3522 1342 68 241 176
859 1140		859 1140 60 1706 656 1390 16
2304 604	859 1140 60 1706 656 1390 16	1971 2848 2304 604 772 9 2641
1795 162	859 1140 60 1706 656 1390 16 1971 2848 2304 604 772 9 2641	1382 151 1795 162 308 63 365
387 834	859 1140 60 1706 656 1390 16 1971 2848 2304 604 772 9 2641 1382 151 1795 162 308 63 365	243 94 126 165 387 834 1104
844		844 1047 490 1706 25 139 359
59	844 1047 490 1706 25 139 359	59 1583 438 232 53 214 8
55	844 1047 490 1706 25 139 359 59 1583 438 232 53 214 8	55 19 57 49 55 238 50
60	844 1047 490 1706 25 139 359 59 1583 438 232 53 214 8 55 19 57 49 55 238 50	60 796 4223 472 95 402 17
702		702 638 1207 258 5 105 456
17	702 638 1207 258 5 105 456	17 14 193 1225 560 16 55
314	702 638 1207 258 5 105 456 17 14 193 1225 560 16 55	314 1616 104 124 112 160 306
370 1066	702 638 1207 258 5 105 456 17 14 193 1225 560 16 55 314 1616 104 124 112 160 306	22 15 29 370 1066 16 293
2573		2573 8 689 1625 73 582 741
17	2573 8 689 1625 73 582 741	17 14 95 258 16 61 10
2261 229	2573 8 689 1625 73 582 741 17 14 95 258 16 61 10	572 166 2261 229 767 20 32
1298 85 41	2573 8 689 1625 73 582 741 17 14 95 258 16 61 10 572 166 2261 229 767 20 32	1298 85 41 1299 833 147 2055
141 525		141 525 941 1059 407 437 368
402	141 525 941 1059 407 437 368	402 476 41 1007 35 92 200
87 1149	141 525 941 1059 407 437 368 402 476 41 1007 35 92 200	9 942 721 67 3563 87 1149
60 312	141 525 941 1059 407 437 368 402 476 41 1007 35 92 200 9 942 721 67 3563 87 1149	143 1095 23 472 222 60 312
325 204		926 641 325 204 61 884 229
1201 165	926 641 325 204 61 884 229	347 26 78 393 206 1201 165
670 2014	926 641 325 204 61 884 229 347 26 78 393 206 1201 165	37 166 737 81 1326 670 2014
49	926 641 325 204 61 884 229 347 26 78 393 206 1201 165 37 166 737 81 1326 670 2014	49 345 532 353 88 77 103
7		7 759 206 329 93 302 56
725	7 759 206 329 93 302 56	725 42 56 1417 347 206 867
33	7 759 206 329 93 302 56 725 42 56 1417 347 206 867	33 15 81 172 728 1536 2492
20	7 759 206 329 93 302 56 725 42 56 1417 347 206 867 33 15 81 172 728 1536 2492	20 6 37 614 2186 1417 229
27 1748		804 1716 383 24 20 27 1748
987	804 1716 383 24 20 27 1748	987 888 5 358 3282 382 17
161	804 1716 383 24 20 27 1748 987 888 5 358 3282 382 17	161 138 1131 3432 76 269 1106
1064	804 1716 383 24 20 27 1748 987 888 5 358 3282 382 17 161 138 1131 3432 76 269 1106	1064 1006 883 402 332 518 260
484		484 393 820 702 21 340 425
1537	484 393 820 702 21 340 425	1537 67 503 269 46 5 436
7	484 393 820 702 21 340 425 1537 67 503 269 46 5 436	7 764 31 156 222 611 112
199	484 393 820 702 21 340 425 1537 67 503 269 46 5 436 7 764 31 156 222 611 112	199 963 33 42 139 6 72
1940 140		243 347 1940 140 1537 1220 152
40	243 347 1940 140 1537 1220 152	40 72 355 355 65 273 245
547	243 347 1940 140 1537 1220 152 40 72 355 355 65 273 245	547 33 2460 158 10 82 242
477	243 347 1940 140 1537 1220 152 40 72 355 355 65 273 245 547 33 2460 158 10 82 242	477 518 1551 39 2561 3209 4541
932 350		1041 2341 932 350 68 281 241
82 72	1041 2341 932 350 68 281 241	82 72 1444 620 25 55 255
130 51	1041 2341 932 350 68 281 241 82 72 1444 620 25 55 255	1647 24 231 577 125 130 51
1400	1041 2341 932 350 68 281 241 82 72 1444 620 25 55 255 1647 24 231 577 125 130 51	1400 332 183 20 333 279 47
5		5 42 95 6 209 1736 1926
1565	5 42 95 6 209 1736 1926	1565 328 867 1019 477 54 980
378	5 42 95 6 209 1736 1926 1565 328 867 1019 477 54 980	378 245 1078 355 2084 826 104
8 103	5 42 95 6 209 1736 1926 1565 328 867 1019 477 54 980 378 245 1078 355 2084 826 104	31 327 8 103 38 329 130
670 1215		197 512 670 1215 33 373 999
55 195	197 512 670 1215 33 373 999	1601 122 136 243 108 55 195
1066 205	197 512 670 1215 33 373 999 1601 122 136 243 108 55 195	1066 205 725 1425 523 1806 1171
66	197 512 670 1215 33 373 999 1601 122 136 243 108 55 195 1066 205 725 1425 523 1806 1171	66 1387 121 602 60 265 665
347		347 116 4323 1361 1445 1601 122
63	347 116 4323 1361 1445 1601 122	63 234 1421 4054 144 3244 2873
811	347 116 4323 1361 1445 1601 122 63 234 1421 4054 144 3244 2873	811 17 158 42 10 468 149
87	347 116 4323 1361 1445 1601 122 63 234 1421 4054 144 3244 2873 811 17 158 42 10 468 149	87 1626 1486 2047 98 25 24
212		212 1417 192 484 804 66 2718
859 1117	212 1417 192 484 804 66 2718	859 1117 3524 2611 54 265 100
122 2020	212 1417 192 484 804 66 2718 859 1117 3524 2611 54 265 100	105 292 197 5 739 122 2020
43	212 1417 192 484 804 66 2718 859 1117 3524 2611 54 265 100 105 292 197 5 739 122 2020	43 241 1415 1415 55 253 30
251 450		1473 30 251 450 616 41 855
5	1473 30 251 450 616 41 855	5 784 308 202 104 66 741
22	1473 30 251 450 616 41 855 5 784 308 202 104 66 741	22 1019 1020 168 3863 904 422
633	1473 30 251 450 616 41 855 5 784 308 202 104 66 741 22 1019 1020 168 3863 904 422	633 30 126 179 212 539 114
1753 1241		1807 9 69 1753 1241 16 2085
46	1807 9 69 1753 1241 16 2085	46 14 196 52 164 84 10
3095	1807 9 69 1753 1241 16 2085 46 14 196 52 164 84 10	3095 3095 6 2084 119 5 351
18	1807 9 69 1753 1241 16 2085 46 14 196 52 164 84 10 3095 3095 6 2084 119 5 351	18 18 2041 823 88 20 114
956		956 2825 307 30 634 549 195
1340 986	956 2825 307 30 634 549 195	1340 986 1467 400 1210 38 314
715	956 2825 307 30 634 549 195 1340 986 1467 400 1210 38 314	715 1069 356 702 33 209 21
990 597	956 2825 307 30 634 549 195 1340 986 1467 400 1210 38 314 715 1069 356 702 33 209 21	1705 67 990 597 159 1152 48
94 150		1148 1148 94 150 86 238 2850
364 210	1148 1148 94 150 86 238 2850	364 210 125 610 65 108 146
442	1148 1148 94 150 86 238 2850 364 210 125 610 65 108 146	442 21 1061 1022 209 879 211
41 356	1148 1148 94 150 86 238 2850 364 210 125 610 65 108 146 442 21 1061 1022 209 879 211	99 607 41 356 112 552 909
1374 11		5 94 502 170 10 1374 11
685	5 94 502 170 10 1374 11	685 152 2777 51 608 6 2031
833	5 94 502 170 10 1374 11 685 152 2777 51 608 6 2031	833 718 38 332 314 1616 3981
927 633	5 94 502 170 10 1374 11 685 152 2777 51 608 6 2031 833 718 38 332 314 1616 3981	317 508 927 633 145 59 117
426		426 66 3278 97 65 211 597
617	426 66 3278 97 65 211 597	617 269 1933 702 5 10 6
353	426 66 3278 97 65 211 597 617 269 1933 702 5 10 6	353 209 403 411 1637 2353 226
507	426 66 3278 97 65 211 597 617 269 1933 702 5 10 6 353 209 403 411 1637 2353 226	507 835 482 116 7 59 13
359 233		541 788 42 51 214 359 233
507	541 788 42 51 214 359 233	507 3210 37 47 118 7 109
414	541 788 42 51 214 359 233 507 3210 37 47 118 7 109	414 1401 263 2491 107 461 1489
202	541 788 42 51 214 359 233 507 3210 37 47 118 7 109 414 1401 263 2491 107 461 1489	202 1991 5 668 2064 320 6
60 410		920 324 41 16 60 410 382
83 9	920 324 41 16 60 410 382	83 9 165 525 342 13 131
168 631	920 324 41 16 60 410 382 83 9 165 525 342 13 131	168 631 21 15 146 16 67
141 1062	920 324 41 16 60 410 382 83 9 165 525 342 13 131 168 631 21 15 146 16 67	141 1062 20 18 108 512 367
4416		4416 477 9 77 7 145 229
63 867	4416 477 9 77 7 145 229	2423 100 29 5282 920 63 867
126 108	4416 477 9 77 7 145 229 2423 100 29 5282 920 63 867	2629 576 126 108 34 262 840
209	4416 477 9 77 7 145 229 2423 100 29 5282 920 63 867 2629 576 126 108 34 262 840	209 2479 136 808 65 185 39
77		77 2305 2157 27 210 4542 3386
8 22	77 2305 2157 27 210 4542 3386	407 997 8 22 331 277 295
288 226	77 2305 2157 27 210 4542 3386 407 997 8 22 331 277 295	288 226 262 379 16 124 1249
101	77 2305 2157 27 210 4542 3386 407 997 8 22 331 277 295 288 226 262 379 16 124 1249	101 97 215 1872 2493 504 86
2719 2720		546 140 1763 537 2719 2720 225
110	546 140 1763 537 2719 2720 225	110 1469 697 2253 97 961 346
134	546 140 1763 537 2719 2720 225 110 1469 697 2253 97 961 346	134 226 547 34 276 1004 429
788 1076	546 140 1763 537 2719 2720 225 110 1469 697 2253 97 961 346 134 226 547 34 276 1004 429	788 1076 243 608 180 393 24
3817 85		484 38 125 610 833 3817 85
859 47	484 38 125 610 833 3817 85	60 39 465 49 859 47 768
852	484 38 125 610 833 3817 85 60 39 465 49 859 47 768	852 130 65 219 502 638 108
24 14	484 38 125 610 833 3817 85 60 39 465 49 859 47 768 852 130 65 219 502 638 108	24 14 120 11 16 67 706
93		93 231 19 11 86 823 899
84 580	93 231 19 11 86 823 899	16 1248 84 580 1213 258 258
233 350	93 231 19 11 86 823 899 16 1248 84 580 1213 258 258	233 350 356 1152 17 353 374
2761 140	93 231 19 11 86 823 899 16 1248 84 580 1213 258 258 233 350 356 1152 17 353 374	360 773 2761 140 739 1049 209
287 262		287 262 1437 27 108 286 610
101 364	287 262 1437 27 108 286 610	63 185 101 364 399 959 22
334 160	287 262 1437 27 108 286 610 63 185 101 364 399 959 22	210 856 334 160 178 709 226
998 474	287 262 1437 27 108 286 610 63 185 101 364 399 959 22 210 856 334 160 178 709 226	78 1361 263 636 1322 998 474
2642		2642 2114 86 272 317 108 550
111 129	2642 2114 86 272 317 108 550	199 359 295 148 1123 111 129
146	2642 2114 86 272 317 108 550 199 359 295 148 1123 111 129	146 2042 315 279 3864 1371 125
625 2271	2642 2114 86 272 317 108 550 199 359 295 148 1123 111 129 146 2042 315 279 3864 1371 125	625 2271 338 602 170 374 405
78 856		4055 3922 78 856 116 1720 2215
2544 179	4055 3922 78 856 116 1720 2215	2544 179 520 11 833 329 85
1753	4055 3922 78 856 116 1720 2215 2544 179 520 11 833 329 85	1753 226 199 19 186 150 217
187 94	4055 3922 78 856 116 1720 2215 2544 179 520 11 833 329 85 1753 226 199 19 186 150 217	2333 6 187 94 724 407 1226
66 364		2948 1817 16 78 728 66 364
1560	2948 1817 16 78 728 66 364	1560 1720 192 4147 378 11 86
158	2948 1817 16 78 728 66 364 1560 1720 192 4147 378 11 86	158 223 356 317 70 886 624
188	2948 1817 16 78 728 66 364 1560 1720 192 4147 378 11 86 158 223 356 317 70 886 624	188 4538 641 209 59 2103 499
33		33 13 331 226 104 1061 1022
415 706	33 13 331 226 104 1061 1022	81 210 77 78 2662 415 706
66 974	33 13 331 226 104 1061 1022 81 210 77 78 2662 415 706	189 919 231 19 949 66 974
689	33 13 331 226 104 1061 1022 81 210 77 78 2662 415 706 189 919 231 19 949 66 974	689 294 473 512 507 22 528
1072 1328		1191 3525 5 42 321 1072 1328
1645	1191 3525 5 42 321 1072 1328	1645 3813 924 245 158 118 72
66 1656	1191 3525 5 42 321 1072 1328 1645 3813 924 245 158 118 72	66 1656 388 19 10 858 153
60	1191 3525 5 42 321 1072 1328 1645 3813 924 245 158 118 72 66 1656 388 19 10 858 153	60 366 33 15 113 6 602
2186		2186 170 795 3465 223 55 58
987	2186 170 795 3465 223 55 58	987 2279 308 63 84 60 39
16	2186 170 795 3465 223 55 58 987 2279 308 63 84 60 39	16 61 20 156 14 9 27
3245 2693	2186 170 795 3465 223 55 58 987 2279 308 63 84 60 39 16 61 20 156 14 9 27	6 80 5 270 126 3245 2693
38 73		172 27 151 8 38 73 40
247	172 27 151 8 38 73 40	247 706 61 179 243 169 730
216 556	172 27 151 8 38 73 40 247 706 61 179 243 169 730	430 2188 251 372 29 216 556
889	172 27 151 8 38 73 40 247 706 61 179 243 169 730 430 2188 251 372 29 216 556	889 106 780 584 61 180 46
4224		4224 329 345 6 1126 374 558
202 85	4224 329 345 6 1126 374 558	123 52 26 179 108 202 85
468 149	4224 329 345 6 1126 374 558 123 52 26 179 108 202 85	99 733 1571 795 2562 468 149
1605 539	4224 329 345 6 1126 374 558 123 52 26 179 108 202 85 99 733 1571 795 2562 468 149	1377 3069 1605 539 146 415 706
523		523 1806 43 15 346 523 1050
1085	523 1806 43 15 346 523 1050	1085 182 79 36 658 1085 328
38 264	523 1806 43 15 346 523 1050 1085 182 79 36 658 1085 328	59 50 38 264 1023 2043 240
95	523 1806 43 15 346 523 1050 1085 182 79 36 658 1085 328 59 50 38 264 1023 2043 240	95 320 99 213 417 325 1416
1418 129		59 50 123 319 7 1418 129
81	59 50 123 319 7 1418 129	81 92 798 3124 210 11 6
2558 370	59 50 123 319 7 1418 129 81 92 798 3124 210 11 6	245 94 180 676 2558 370 561
1313	59 50 123 319 7 1418 129 81 92 798 3124 210 11 6 245 94 180 676 2558 370 561	1313 385 666 58 2643 82 550
141 149		141 149 63 63 177 149 101
239 12	141 149 63 63 177 149 101	239 12 919 404 484 12 75
77	141 149 63 63 177 149 101 239 12 919 404 484 12 75	77 8 5 37 186 160 45
13	141 149 63 63 177 149 101 239 12 919 404 484 12 75 77 8 5 37 186 160 45	13 15 664 130 1867 303 55
87		87 795 138 2827 1907 177 346
97	87 795 138 2827 1907 177 346	97 12 1199 110 270 2229 3211
1070 238	87 795 138 2827 1907 177 346 97 12 1199 110 270 2229 3211	1070 238 15 342 130 222 112
171	87 795 138 2827 1907 177 346 97 12 1199 110 270 2229 3211 1070 238 15 342 130 222 112	171 625 55 195 224 598 225
542 364		542 364 512 380 61 57 40
1070 238	542 364 512 380 61 57 40	288 650 1070 238 107 254 147
37	542 364 512 380 61 57 40 288 650 1070 238 107 254 147	37 494 1412 229 11 230 330
114	542 364 512 380 61 57 40 288 650 1070 238 107 254 147 37 494 1412 229 11 230 330	114 24 16 61 88 1067 123
748		748 67 595 269 208 93 19
1143 163	748 67 595 269 208 93 19	72 1143 163 116 141 127 1143
60 39	748 67 595 269 208 93 19 72 1143 163 116 141 127 1143	60 39 924 69 360 987 3466
190 808	748 67 595 269 208 93 19 72 1143 163 116 141 127 1143 60 39 924 69 360 987 3466	1807 598 190 808 1690 110 472
33		33 471 550 16 7 1146 11
1156 839	33 471 550 16 7 1146 11	1156 839 1754 181 2306 168 543
196	33 471 550 16 7 1146 11 1156 839 1754 181 2306 168 543	196 44 161 451 194 246 28
184 535	33 471 550 16 7 1146 11 1156 839 1754 181 2306 168 543 196 44 161 451 194 246 28	158 1186 56 183 30 184 535
96		96 235 22 437 210 8 54
562	96 235 22 437 210 8 54	562 27 490 9 94 150 190
33	96 235 22 437 210 8 54 562 27 490 9 94 150 190	33 15 285 44 114 65 171
52	96 235 22 437 210 8 54 562 27 490 9 94 150 190 33 15 285 44 114 65 171	52 146 38 347 150 477 477
38 264		41 26 38 264 588 158 173
750 9	41 26 38 264 588 158 173	750 9 1058 213 5 273 160
52	41 26 38 264 588 158 173 750 9 1058 213 5 273 160	52 28 56 8 423 298 27
91 181	41 26 38 264 588 158 173 750 9 1058 213 5 273 160 52 28 56 8 423 298 27	256 878 91 181 7 921 232
91 181		1382 450 391 391 91 181 86
423	1382 450 391 391 91 181 86	423 298 56 27 203 11 248
224 232	1382 450 391 391 91 181 86 423 298 56 27 203 11 248	532 353 224 232 10 321 253
60	1382 450 391 391 91 181 86 423 298 56 27 203 11 248 532 353 224 232 10 321 253	60 22 52 28 2149 750 1073
41 803		41 803 1382 181 200 369 216
1500	41 803 1382 181 200 369 216	1500 133 564 12 164 84 101
224 232	41 803 1382 181 200 369 216 1500 133 564 12 164 84 101	224 232 91 15 353 5 65
134 20 55	41 803 1382 181 200 369 216 1500 133 564 12 164 84 101 224 232 91 15 353 5 65	57 750 180 172 134 20 55
15		15 55 8 1973 177 63 63
210	15 55 8 1973 177 63 63	210 1146 34 92 108 4148 917
140 147	15 55 8 1973 177 63 63 210 1146 34 92 108 4148 917	1200 140 147 26 187 186 842
423 298	15 55 8 1973 177 63 63 210 1146 34 92 108 4148 917 1200 140 147 26 187 186 842	130 317 13 47 104 423 298
49 6		750 17 49 6 569 101 49
240	750 17 49 6 569 101 49	240 2828 288 5283 218 192 141
27 89	750 17 49 6 569 101 49 240 2828 288 5283 218 192 141	13 415 5 24 172 27 89
456 99	750 17 49 6 569 101 49 240 2828 288 5283 218 192 141 13 415 5 24 172 27 89	15 342 456 99 1430 393 94
91 181		33 15 38 264 91 181 62
423	33 15 38 264 91 181 62	423 298 56 27 253 413 16
277	33 15 38 264 91 181 62 423 298 56 27 253 413 16	277 219 97 194 158 173 32
117	33 15 38 264 91 181 62 423 298 56 27 253 413 16 277 219 97 194 158 173 32	117 48 210 683 88 3387 152
92 376		276 372 81 92 376 562 9
550 262	276 372 81 92 376 562 9	562 81 38 42 347 550 262
8 186	276 372 81 92 376 562 9 562 81 38 42 347 550 262	779 1799 117 8 186 798 1737
383	276 372 81 92 376 562 9 562 81 38 42 347 550 262 779 1799 117 8 186 798 1737	383 223 140 1146 616 13 136
108 512 367		7 401 154 22 108 512 367
199	7 401 154 22 108 512 367	199 64 56 1146 415 1343 140
572	7 401 154 22 108 512 367 199 64 56 1146 415 1343 140	572 166 40 318 158 12 28
1124 750	7 401 154 22 108 512 367 199 64 56 1146 415 1343 140 572 166 40 318 158 12 28	349 24 1446 112 1461 1124 750
738 140		177 1102 92 18 204 738 140
128	177 1102 92 18 204 738 140	128 12 284 159 71 57 750
323 22	177 1102 92 18 204 738 140 128 12 284 159 71 57 750	155 176 84 506 323 22 437
325 303	177 1102 92 18 204 738 140 128 12 284 159 71 57 750 155 176 84 506 323 22 437	325 303 83 223 41 27 55
78		78 41 59 50 115 77 103
33	78 41 59 50 115 77 103	33 58 41 133 1438 112 232
28 149	78 41 59 50 115 77 103 33 58 41 133 1438 112 232	28 149 46 690 13 149 148
872	78 41 59 50 115 77 103 33 58 41 133 1438 112 232 28 149 46 690 13 149 148	872 8 74 300 167 8 282
1381		1381 1546 57 19 301 31 117
126 11	1381 1546 57 19 301 31 117	206 6 33 15 175 126 11
187	1381 1546 57 19 301 31 117 206 6 33 15 175 126 11	187 94 850 229 7 70 50
33	1381 1546 57 19 301 31 117 206 6 33 15 175 126 11 187 94 850 229 7 70 50	33 146 114 65 199 70 392
41		41 150 77 413 70 50 703
63	41 150 77 413 70 50 703	63 22 210 213 288 274 452
172 27	41 150 77 413 70 50 703 63 22 210 213 288 274 452	106 94 1430 393 172 27 1249
55 319	41 150 77 413 70 50 703 63 22 210 213 288 274 452 106 94 1430 393 172 27 1249	55 319 81 803 46 287 538
247 35		77 9 247 35 766 267 1065
251	77 9 247 35 766 267 1065	251 112 1151 520 521 212 274
204	77 9 247 35 766 267 1065 251 112 1151 520 521 212 274	204 110 1695 1469 532 353 45
24	77 9 247 35 766 267 1065 251 112 1151 520 521 212 274 204 110 1695 1469 532 353 45	24 44 5 960 60 22 34
300 51		41 194 300 51 772 750 1480
172 9	41 194 300 51 772 750 1480	70 50 172 9 108 353 82
320 67	41 194 300 51 772 750 1480 70 50 172 9 108 353 82	320 67 196 34 543 45 2198
1358 12	41 194 300 51 772 750 1480 70 50 172 9 108 353 82 320 67 196 34 543 45 2198	1358 12 343 37 1438 247 13
593		593 483 13 247 101 389 691
1111	593 483 13 247 101 389 691	1111 986 12 65 745 12 92
167 9	593 483 13 247 101 389 691 1111 986 12 65 745 12 92	442 292 282 167 9 207 61
183 358	593 483 13 247 101 389 691 1111 986 12 65 745 12 92 442 292 282 167 9 207 61	5 1444 40 183 358 90 34
236		236 2371 523 165 4054 203 514
92 962	236 2371 523 165 4054 203 514	95 1156 54 177 376 92 962
85	236 2371 523 165 4054 203 514 95 1156 54 177 376 92 962	85 62 5 42 34 694 415
147	236 2371 523 165 4054 203 514 95 1156 54 177 376 92 962 85 62 5 42 34 694 415	147 26 160 48 91 15 267
167 61		167 61 456 237 252 288 621
103 514	167 61 456 237 252 288 621	462 300 798 112 171 103 514
129	167 61 456 237 252 288 621 462 300 798 112 171 103 514	129 47 574 65 353 190 65
976 64	167 61 456 237 252 288 621 462 300 798 112 171 103 514 129 47 574 65 353 190 65	7 162 976 64 401 271 267
158 585		2358 649 12 76 107 158 585
13 1136	2358 649 12 76 107 158 585	13 1136 757 493 875 11 48
12 55	2358 649 12 76 107 158 585 13 1136 757 493 875 11 48	374 6 5 68 12 55 68
46	2358 649 12 76 107 158 585 13 1136 757 493 875 11 48 374 6 5 68 12 55 68	46 300 63 193 749 221 54
189		189 332 57 19 187 2395 66
77	189 332 57 19 187 2395 66	77 258 7 710 383 100 163
572	189 332 57 19 187 2395 66 77 258 7 710 383 100 163	572 166 136 36 20 32 148
817 153	189 332 57 19 187 2395 66 77 258 7 710 383 100 163 572 166 136 36 20 32 148	66 6 817 153 61 433 629
28		28 261 143 133 7 3182 582
40 814	28 261 143 133 7 3182 582	58 187 40 814 14 274 8
89 1329	28 261 143 133 7 3182 582 58 187 40 814 14 274 8	118 165 89 1329 1227 205 982
27 329	28 261 143 133 7 3182 582 58 187 40 814 14 274 8 118 165 89 1329 1227 205 982	27 329 6 36 68 32 169
704 102		1124 750 20 51 704 102 117
27	1124 750 20 51 704 102 117	27 192 319 52 135 450 535
231	1124 750 20 51 704 102 117 27 192 319 52 135 450 535	231 93 180 731 1072 58 28
92 11	1124 750 20 51 704 102 117 27 192 319 52 135 450 535 231 93 180 731 1072 58 28	5 300 40 828 99 92 11
27		27 892 408 466 724 14 64
111 2012	27 892 408 466 724 14 64	226 1187 111 2012 203 11 52
69 140	27 892 408 466 724 14 64 226 1187 111 2012 203 11 52	77 8 148 69 140 295 317
264	27 892 408 466 724 14 64 226 1187 111 2012 203 11 52 77 8 148 69 140 295 317	264 141 264 12 494 284 30
1241		1241 420 151 1266 2158 141 54
731	1241 420 151 1266 2158 141 54	731 297 1471 1106 716 1427 1009
117 410	1241 420 151 1266 2158 141 54 731 297 1471 1106 716 1427 1009	56 17 117 410 44 85 1808
53 150 190	1241 420 151 1266 2158 141 54 731 297 1471 1106 716 1427 1009 56 17 117 410 44 85 1808	179 26 121 238 53 150 190
683 110		683 110 456 237 969 58 89
87	683 110 456 237 969 58 89	87 2244 265 806 1356 297 151
88	683 110 456 237 969 58 89 87 2244 265 806 1356 297 151	88 24 204 159 196 33 471
874 47	683 110 456 237 969 58 89 87 2244 265 806 1356 297 151 88 24 204 159 196 33 471	356 27 77 103 21 874 47
2949		2949 417 2396 2396 490 819 262
288 127	2949 417 2396 2396 490 819 262	754 407 243 73 288 127 136
84 24	2949 417 2396 2396 490 819 262 754 407 243 73 288 127 136	84 24 120 51 294 10 51
147	2949 417 2396 2396 490 819 262 754 407 243 73 288 127 136 84 24 120 51 294 10 51	147 26 160 48 185 26 9
206		206 147 85 182 13 15 267
206 147	206 147 85 182 13 15 267	206 147 85 50 10 6 36
701 146	206 147 85 182 13 15 267 206 147 85 50 10 6 36	701 146 88 877 5 24 32
83 141	206 147 85 182 13 15 267 206 147 85 50 10 6 36 701 146 88 877 5 24 32	793 793 251 328 83 141 12
55		55 366 625 226 413 22 92
356	55 366 625 226 413 22 92	356 374 56 5080 211 757 915
126 85	55 366 625 226 413 22 92 356 374 56 5080 211 757 915	126 85 15 2277 87 129 107
1494 2461	55 366 625 226 413 22 92 356 374 56 5080 211 757 915 126 85 15 2277 87 129 107	199 537 641 6 1494 2461 34
103 91		404 27 77 103 91 261 18
101 12	404 27 77 103 91 261 18	101 12 104 566 112 53 419
151	404 27 77 103 91 261 18 101 12 104 566 112 53 419	151 361 315 42 81 9 149
1041 444	404 27 77 103 91 261 18 101 12 104 566 112 53 419 151 361 315 42 81 9 149	179 26 136 255 1041 444 72
33		33 15 1041 36 251 353 664
77	33 15 1041 36 251 353 664	77 545 101 564 626 56 328
323	33 15 1041 36 251 353 664 77 545 101 564 626 56 328	323 22 1822 389 92 125 65
442	33 15 1041 36 251 353 664 77 545 101 564 626 56 328 323 22 1822 389 92 125 65	442 1349 63 9 82 28 62
12		12 851 177 459 254 85 89
602 238	12 851 177 459 254 85 89	252 590 602 238 493 104 1107
199	12 851 177 459 254 85 89 252 590 602 238 493 104 1107	199 15 1293 12 588 91 798
7	12 851 177 459 254 85 89 252 590 602 238 493 104 1107 199 15 1293 12 588 91 798	7 117 13 415 7 740 47
163 586		682 768 163 586 68 6 80
2021	682 768 163 586 68 6 80	2021 611 73 18 31 195 102
166 829	682 768 163 586 68 6 80 2021 611 73 18 31 195 102	11 1883 189 286 1064 166 829
436 9	682 768 163 586 68 6 80 2021 611 73 18 31 195 102 11 1883 189 286 1064 166 829	921 232 99 108 254 436 9
750 41		750 41 231 28 13 27 123
8 482	750 41 231 28 13 27 123	104 28 295 8 482 58 53
2138 88	750 41 231 28 13 27 123 104 28 295 8 482 58 53	814 2138 88 116 123 140 1936
38 581	750 41 231 28 13 27 123 104 28 295 8 482 58 53 814 2138 88 116 123 140 1936	749 1035 38 581 166 1049 163
111 35		70 50 1382 151 111 35 89
10	70 50 1382 151 111 35 89	10 146 10 342 14 2176 255
411 230	70 50 1382 151 111 35 89 10 146 10 342 14 2176 255	1236 2138 411 230 289 17 134
148	70 50 1382 151 111 35 89 10 146 10 342 14 2176 255 1236 2138 411 230 289 17 134	148 21 22 9 1420 3982 583
848 393		848 393 1278 210 750 27 77
750 17	848 393 1278 210 750 27 77	3073 143 824 300 104 750 17
143	848 393 1278 210 750 27 77 3073 143 824 300 104 750 17	143 483 144 1143 273 25 1627
38 445	848 393 1278 210 750 27 77 3073 143 824 300 104 750 17 143 483 144 1143 273 25 1627	79 130 38 445 69 546 260
61		61 3564 257 74 108 89 1164
26	61 3564 257 74 108 89 1164	26 3564 257 74 88 1067 16
3564	61 3564 257 74 108 89 1164 26 3564 257 74 88 1067 16	3564 81 442 71 254 436 1278
95 6	61 3564 257 74 108 89 1164 26 3564 257 74 88 1067 16 3564 81 442 71 254 436 1278	121 327 95 6 532 353 257
28		28 91 646 428 216 104 16
41	28 91 646 428 216 104 16	41 1382 546 929 252 160 418
1192	28 91 646 428 216 104 16 41 1382 546 929 252 160 418	1192 820 147 182 54 9 579
58	28 91 646 428 216 104 16 41 1382 546 929 252 160 418 1192 820 147 182 54 9 579	58 142 530 64 71 112 257
854 345		854 345 2095 4770 506 165 257
13	854 345 2095 4770 506 165 257	13 141 63 63 59 1083 328
446	854 345 2095 4770 506 165 257 13 141 63 63 59 1083 328	446 26 490 85 1273 1278 1085
40	854 345 2095 4770 506 165 257 13 141 63 63 59 1083 328 446 26 490 85 1273 1278 1085	40 52 113 32 14 82 111
103		103 19 7 15 243 7 15
155	103 19 7 15 243 7 15	155 51 20 18 21 377 18
446 115	103 19 7 15 243 7 15 155 51 20 18 21 377 18	446 115 77 151 166 513 1138
608	103 19 7 15 243 7 15 155 51 20 18 21 377 18 446 115 77 151 166 513 1138	608 125 47 124 332 2099 1744
221 2189		490 367 221 2189 417 1135 1165
159	490 367 221 2189 417 1135 1165	159 1116 438 17 42 43 6
204	490 367 221 2189 417 1135 1165 159 1116 438 17 42 43 6	204 773 46 379 3711 2980 26
247 13	490 367 221 2189 417 1135 1165 159 1116 438 17 42 43 6 204 773 46 379 3711 2980 26	668 125 127 399 252 247 13
20		20 51 70 19 1043 507 44
41 22	20 51 70 19 1043 507 44	218 444 276 556 49 41 22
81	20 51 70 19 1043 507 44 218 444 276 556 49 41 22	81 53 46 108 9 89 635
2083	20 51 70 19 1043 507 44 218 444 276 556 49 41 22 81 53 46 108 9 89 635	2083 150 505 505 27 25 132
1187 1187		756 165 238 1186 211 1187 1187
537 407	756 165 238 1186 211 1187 1187	7 537 407 92 387 1132 83
49	756 165 238 1186 211 1187 1187 7 537 407 92 387 1132 83	49 65 163 12 13 5 516
19	756 165 238 1186 211 1187 1187 7 537 407 92 387 1132 83 49 65 163 12 13 5 516	19 19 428 389 828 77 8
22		22 536 9 310 15 88 267
2115 246	22 536 9 310 15 88 267	2115 246 61 179 252 247 12
109 506 708	22 536 9 310 15 88 267 2115 246 61 179 252 247 12	25 120 109 506 708 78 1013
725	22 536 9 310 15 88 267 2115 246 61 179 252 247 12 25 120 109 506 708 78 1013	725 71 76 18 5 68 36
302 51		60 179 4145 302 51 84 83
496 966	60 179 4145 302 51 84 83	217 1153 247 2159 42 496 966
287	60 179 4145 302 51 84 83 217 1153 247 2159 42 496 966	287 287 576 412 56 8 191
35 64	60 179 4145 302 51 84 83 217 1153 247 2159 42 496 966 287 287 576 412 56 8 191	7 58 35 64 1692 196 687
192		192 1270 523 2829 60 796 102
97	192 1270 523 2829 60 796 102	97 168 624 1231 244 8 54
1051	192 1270 523 2829 60 796 102 97 168 624 1231 244 8 54	1051 22 489 525 95 29 335
364 103	192 1270 523 2829 60 796 102 97 168 624 1231 244 8 54 1051 22 489 525 95 29 335	55 252 364 103 107 217 9
208 185		311 329 123 11 208 185 36
38	311 329 123 11 208 185 36	38 44 138 1152 2116 320 194
2117 692	311 329 123 11 208 185 36 38 44 138 1152 2116 320 194	79 24 2117 692 9 39 144
99	311 329 123 11 208 185 36 38 44 138 1152 2116 320 194 79 24 2117 692 9 39 144	99 73 388 6 1915 159 381
41		41 483 70 36 369 562 22
41	41 483 70 36 369 562 22	41 12 404 275 96 391 391
91 15	41 483 70 36 369 562 22 41 12 404 275 96 391 391	13 8 91 15 79 38 42
63	41 483 70 36 369 562 22 41 12 404 275 96 391 391 13 8 91 15 79 38 42	63 1471 232 17 14 3341 44
92 12		13 147 10 32 5 92 12
54 567	13 147 10 32 5 92 12	54 567 77 8 594 177 267
15	13 147 10 32 5 92 12 54 567 77 8 594 177 267	15 342 356 202 245 1628 974
437 108	13 147 10 32 5 92 12 54 567 77 8 594 177 267 15 342 356 202 245 1628 974	224 111 437 108 180 638 36
2560 179		2560 179 1167 11 594 177 17
426 961	2560 179 1167 11 594 177 17	426 961 88 115 1582 336 77
87 1366	2560 179 1167 11 594 177 17 426 961 88 115 1582 336 77	87 1366 404 2679 13 147 96
12	2560 179 1167 11 594 177 17 426 961 88 115 1582 336 77 87 1366 404 2679 13 147 96	12 2944 1844 2073 26 1106 8
1427 1688		1427 1688 2804 60 1307 82 592
203	1427 1688 2804 60 1307 82 592	203 15 12 17 437 192 1366
66	1427 1688 2804 60 1307 82 592 203 15 12 17 437 192 1366	66 1606 683 117 200 2290 3125
97	1427 1688 2804 60 1307 82 592 203 15 12 17 437 192 1366 66 1606 683 117 200 2290 3125	97 961 88 61 5 100 2073
750 167		750 167 1077 1077 750 27 13
1343 140	750 167 1077 1077 750 27 13	1343 140 268 749 709 1370 82
146	750 167 1077 1077 750 27 13 1343 140 268 749 709 1370 82	146 11 153 115 34 878 94
383	750 167 1077 1077 750 27 13 1343 140 268 749 709 1370 82 146 11 153 115 34 878 94	383 203 81 92 42 374 6
323 22		323 22 5 277 43 9 592
9	323 22 5 277 43 9 592	9 1372 307 307 213 334 746
244	323 22 5 277 43 9 592 9 1372 307 307 213 334 746	244 28 868 92 95 162 50
56	323 22 5 277 43 9 592 9 1372 307 307 213 334 746 244 28 868 92 95 162 50	56 364 390 68 199 234 78
35 275		55 330 12 122 35 275 909
38 1782	55 330 12 122 35 275 909	41 147 15 342 148 38 1782
13 165	55 330 12 122 35 275 909 41 147 15 342 148 38 1782	13 165 5 765 4217 3048 713
184 27	55 330 12 122 35 275 909 41 147 15 342 148 38 1782 13 165 5 765 4217 3048 713	184 27 117 359 1820 334 336
180		180 5544 202 17 116 1199 48
59	180 5544 202 17 116 1199 48	59 19 122 26 96 12 247
1243	180 5544 202 17 116 1199 48 59 19 122 26 96 12 247	1243 207 58 765 66 258 411
812	180 5544 202 17 116 1199 48 59 19 122 26 96 12 247 1243 207 58 765 66 258 411	812 3758 146 720 97 861 54
55 393		36 68 55 393 118 701 17
834 657	36 68 55 393 118 701 17	443 447 834 657 252 13 8
44	36 68 55 393 118 701 17 443 447 834 657 252 13 8	44 209 666 15 431 154 1572
66	36 68 55 393 118 701 17 443 447 834 657 252 13 8 44 209 666 15 431 154 1572	66 1564 629 125 108 356 202
209		209 528 204 693 833 523 751
960 83	209 528 204 693 833 523 751	5 960 83 163 330 43 109
85	209 528 204 693 833 523 751 5 960 83 163 330 43 109	85 182 192 1141 13 574 179
165	209 528 204 693 833 523 751 5 960 83 163 330 43 109 85 182 192 1141 13 574 179	165 62 87 974 58 629 6
70		70 275 2976 5077 66 1606 2543
63 352	70 275 2976 5077 66 1606 2543	63 352 565 1162 834 1969 4910
426 961	70 275 2976 5077 66 1606 2543 63 352 565 1162 834 1969 4910	426 961 244 107 570 215 150
181	70 275 2976 5077 66 1606 2543 63 352 565 1162 834 1969 4910 426 961 244 107 570 215 150	181 181 13 168 366 177 8
60		60 22 267 15 271 89 193
66	60 22 267 15 271 89 193	66 1092 790 1054 24 113 126
571 72	60 22 267 15 271 89 193 66 1092 790 1054 24 113 126	290 110 571 72 6 437 159
194	60 22 267 15 271 89 193 66 1092 790 1054 24 113 126 290 110 571 72 6 437 159	194 140 423 50 14 529 530
286		286 177 63 63 2103 179 2073
117	286 177 63 63 2103 179 2073	117 8 342 35 108 1129 4771
461	286 177 63 63 2103 179 2073 117 8 342 35 108 1129 4771	461 540 204 68 13 9 50
121	286 177 63 63 2103 179 2073 117 8 342 35 108 1129 4771 461 540 204 68 13 9 50	121 21 6 3 180 181 592
81		81 116 2176 64 7 506 597
117	81 116 2176 64 7 506 597	117 48 56 141 493 1266 894
54	81 116 2176 64 7 506 597 117 48 56 141 493 1266 894	54 16 342 96 83 9 50
1340 36	81 116 2176 64 7 506 597 117 48 56 141 493 1266 894 54 16 342 96 83 9 50	113 32 1340 36 21 374 6
158 51		158 51 154 6 60 1505 170
2574 39	158 51 154 6 60 1505 170	2574 39 34 45 175 532 8
103 27	158 51 154 6 60 1505 170 2574 39 34 45 175 532 8	941 85 103 27 305 152 68
54 9	158 51 154 6 60 1505 170 2574 39 34 45 175 532 8 941 85 103 27 305 152 68	7 150 54 9 59 296 17
646		646 1170 350 835 252 56 8
323 22	646 1170 350 835 252 56 8	787 213 323 22 1373 27 77
286	646 1170 350 835 252 56 8 787 213 323 22 1373 27 77	286 162 183 183 1833 525 342
229	646 1170 350 835 252 56 8 787 213 323 22 1373 27 77 286 162 183 183 1833 525 342	229 6 334 347 60 39 260
364 803		180 1036 364 803 1283 1297 805
186	180 1036 364 803 1283 1297 805	186 615 426 2945 15 342 18
156	180 1036 364 803 1283 1297 805 186 615 426 2945 15 342 18	156 21 326 393 85 61 112
38 2149	180 1036 364 803 1283 1297 805 186 615 426 2945 15 342 18 156 21 326 393 85 61 112	135 117 38 2149 5 300 602
293		293 8 215 26 57 234 28
5	293 8 215 26 57 234 28	5 58 147 133 59 50 319
325 204	293 8 215 26 57 234 28 5 58 147 133 59 50 319	325 204 106 237 262 959 253
55 68 67	293 8 215 26 57 234 28 5 58 147 133 59 50 319 325 204 106 237 262 959 253	137 552 55 68 67 174 36
97 412		97 412 752 215 287 1026 36
342	97 412 752 215 287 1026 36	342 13 57 28 1582 229 12
38 42	97 412 752 215 287 1026 36 342 13 57 28 1582 229 12	71 44 154 423 5 38 42
1016	97 412 752 215 287 1026 36 342 13 57 28 1582 229 12 71 44 154 423 5 38 42	1016 84 186 1122 532 383 514
1523 181		423 298 211 248 1523 181 695
349	423 298 211 248 1523 181 695	349 21 550 490 253 204 18
577	423 298 211 248 1523 181 695 349 21 550 490 253 204 18	577 44 2545 17 1243 361 1330
20	423 298 211 248 1523 181 695 349 21 550 490 253 204 18 577 44 2545 17 1243 361 1330	20 857 494 438 55 38 196
953		953 110 503 47 58 5 2177
14 358	953 110 503 47 58 5 2177	817 176 14 358 166 79 196
2950	953 110 503 47 58 5 2177 817 176 14 358 166 79 196	2950 48 235 28 1304 1304 271
3659 3660	953 110 503 47 58 5 2177 817 176 14 358 166 79 196 2950 48 235 28 1304 1304 271	11 261 41 165 3659 3660 18
63 538		288 2020 63 538 531 110 741
91 12	288 2020 63 538 531 110 741	91 12 18 73 167 8 656
34	288 2020 63 538 531 110 741 91 12 18 73 167 8 656	34 18 25 658 12 62 171
153	288 2020 63 538 531 110 741 91 12 18 73 167 8 656 34 18 25 658 12 62 171	153 115 4056 312 166 330 10
452 187		143 26 452 187 554 693 530
1145	143 26 452 187 554 693 530	1145 232 274 566 376 89 193
63	143 26 452 187 554 693 530 1145 232 274 566 376 89 193	63 9 1547 159 22 119 68
236	143 26 452 187 554 693 530 1145 232 274 566 376 89 193 63 9 1547 159 22 119 68	236 107 77 81 208 180 234
488		488 186 64 29 390 756 514
5	488 186 64 29 390 756 514	5 24 618 182 21 79 36
126	488 186 64 29 390 756 514 5 24 618 182 21 79 36	126 85 89 713 10 227 32
436 14	488 186 64 29 390 756 514 5 24 618 182 21 79 36 126 85 89 713 10 227 32	436 14 192 239 70 162 12
4148		4148 4148 22 805 45 5 136
183 183	4148 4148 22 805 45 5 136	183 183 1207 1092 765 83 9
90	4148 4148 22 805 45 5 136 183 183 1207 1092 765 83 9	90 11 442 1295 308 63 628
1694 410	4148 4148 22 805 45 5 136 183 183 1207 1092 765 83 9 90 11 442 1295 308 63 628	1694 410 29 264 408 96 468
2462 96		2462 96 307 307 1064 2462 22
1773 8	2462 96 307 307 1064 2462 22	1773 8 111 1146 5 273 187
761	2462 96 307 307 1064 2462 22 1773 8 111 1146 5 273 187	761 607 43 204 10 388 1330
63 9	2462 96 307 307 1064 2462 22 1773 8 111 1146 5 273 187 761 607 43 204 10 388 1330	644 14 63 9 253 285 44
60 410		60 410 196 34 34 5 23
83	60 410 196 34 34 5 23	83 9 187 1146 1146 64 1206
78 210	60 410 196 34 34 5 23 83 9 187 1146 1146 64 1206	95 147 91 15 213 78 210
175	60 410 196 34 34 5 23 83 9 187 1146 1146 64 1206 95 147 91 15 213 78 210	175 42 56 8 506 27 11
423 298		750 9 296 91 423 298 248
750	750 9 296 91 423 298 248	750 27 413 22 56 1146 86
373	750 9 296 91 423 298 248 750 27 413 22 56 1146 86	373 999 232 17 79 572 166
28	750 9 296 91 423 298 248 750 27 413 22 56 1146 86 373 999 232 17 79 572 166	28 52 98 25 230 546 238
265 82		48 386 298 1517 60 265 82
8 129	48 386 298 1517 60 265 82	953 44 5 279 430 8 129
56	48 386 298 1517 60 265 82 953 44 5 279 430 8 129	56 11 86 42 55 195 112
270	48 386 298 1517 60 265 82 953 44 5 279 430 8 129 56 11 86 42 55 195 112	270 316 1801 312 130 113 6
628		628 186 366 181 354 602 2457
629 8	628 186 366 181 354 602 2457	641 179 629 8 191 303 1810
214	628 186 366 181 354 602 2457 641 179 629 8 191 303 1810	214 21 1146 85 54 28 58
43	628 186 366 181 354 602 2457 641 179 629 8 191 303 1810 214 21 1146 85 54 28 58	43 18 121 399 65 297 319
16 30		16 30 7 2463 46 10 1845
583 628	16 30 7 2463 46 10 1845	813 2782 282 583 628 108 233
930 458	16 30 7 2463 46 10 1845 813 2782 282 583 628 108 233	186 115 204 325 930 458 32
217 591 6	16 30 7 2463 46 10 1845 813 2782 282 583 628 108 233 186 115 204 325 930 458 32	138 121 365 14 217 591 6
253 9		253 9 79 1811 41 81 210
55	253 9 79 1811 41 81 210	55 150 83 223 162 635 89
103	253 9 79 1811 41 81 210 55 150 83 223 162 635 89	103 1082 627 4321 43 20 856
53 112	253 9 79 1811 41 81 210 55 150 83 223 162 635 89 103 1082 627 4321 43 20 856	644 121 53 112 277 24 47
97 85		1063 112 97 85 31 14 2214
